0,078763 
0,063800 
0,031078 
0,014963 
0,002138 
0,004769 
0,002960 
0,007728 
0,010688 
0,009208 
0,009702 
0,002302 
-0,002466 
0,007235 
0,007893 
0,054920 
0,045383 
0,008222 
0,001973 
-0,006084 
-0,208500 
0,786645 
0,847485 
-0,090109 
-0,054263 
-0,033544 
-0,026803 
-0,015292 
-0,001973 
0,015950 
0,038148 
0,068239 
0,093727 
0,098002 
0,074488 
0,044397 
0,029927 
0,014963 
0,007071 
0,015128 
0,014963 
0,010853 
0,002960 
0,002960 
0,003453 
-0,001315 
0,012332 
0,021047 
0,055578 
0,026967 
0,002466 
-0,007235 
-0,067746 
-0,040944 
1,175364 
0,110005 
-0,101948 
-0,034695 
-0,031571 
-0,022034 
-0,008057 
0,007893 
0,022034 
0,053441 
0,083696 
0,103264 
0,093727 
0,067088 
0,036011 
0,019896 
0,014634 
0,007893 
0,010359 
0,010195 
0,007399 
0,007071 
0,007728 
0,001315 
0,007071 
0,010688 
0,043903 
0,051961 
0,020390 
0,007071 
0,007235 
-0,169859 
0,292197 
1,068647 
-0,054098 
-0,068239 
-0,021541 
-0,017923 
-0,006084 
0,006577 
0,020554 
0,046863 
0,078599 
0,107374 
0,113787 
0,095206 
0,059031 
0,035353 
0,019403 
0,013812 
0,009373 
0,007399 
0,010030 
0,007399 
0,001480 
-0,002466 
-0,002302 
0,002960 
0,002960 
0,059689 
0,033051 
0,001480 
-0,002795 
-0,013483 
-0,221162 
0,783192 
0,678613 
-0,101126 
-0,060018 
-0,038313 
-0,031407 
-0,021541 
-0,000822 
0,014799 
0,049659 
0,078270 
0,103921 
0,098166 
0,076790 
0,049165 
0,022198 
0,010853 
0,006577 
0,000329 
0,006248 
0,002302 
0,002466 
-0,001973 
-0,007235 
-0,001315 
0,003124 
0,020883 
0,053934 
0,018910 
-0,007728 
-0,012332 
-0,068733 
-0,014634 
1,252483 
0,077777 
-0,107210 
-0,039464 
-0,036175 
-0,031735 
-0,018910 
-0,001973 
0,015621 
0,047028 
0,075146 
0,088136 
0,083861 
0,054263 
0,025487 
0,010195 
0,001973 
0,002631 
0,003618 
0,007893 
0,007564 
0,006248 
0,002138 
-0,007728 
0,002960 
0,001973 
0,038642 
0,045219 
0,014963 
-0,005426 
-0,001973 
-0,168214 
0,326070 
1,214499 
-0,056729 
-0,081887 
-0,040944 
-0,034531 
-0,026474 
-0,008386 
0,007564 
0,025651 
0,049823 
0,083696 
0,091918 
0,074324 
0,048014 
0,024336 
0,014306 
0,010195 
0,010195 
0,010030 
0,010853 
0,020390 
0,010195 
0,008550 
0,010524 
0,010195 
0,018745 
0,052125 
0,048014 
0,014470 
0,007235 
0,007071 
-0,199621 
0,664143 
0,843539 
-0,065280 
-0,046534 
-0,006906 
-0,002795 
0,007728 
0,020390 
0,035189 
0,064622 
0,095206 
0,117898 
0,127600 
0,104579 
0,074159 
0,058702 
0,034860 
0,035024 
0,025487 
0,024994 
0,015621 
0,007071 
0,002960 
-0,000164 
0,001809 
0,004604 
0,020718 
0,059360 
0,015128 
-0,002466 
0,002466 
-0,113952 
0,143878 
1,194273 
0,009866 
-0,087971 
-0,019896 
-0,021541 
-0,015457 
-0,002302 
0,015457 
0,037491 
0,063800 
0,098660 
0,107703 
0,095371 
0,064129 
0,038313 
0,017265 
0,010195 
0,007071 
0,010359 
0,005262 
0,007564 
0,003289 
0,002138 
0,001973 
0,002631 
0,008879 
0,059853 
0,035024 
0,004769 
-0,006084 
-0,010030 
-0,218202 
0,838770 
0,526184 
-0,111650 
-0,054920 
-0,041601 
-0,031571 
-0,024336 
-0,005426 
0,008550 
0,035024 
0,073008 
0,093233 
0,087807 
0,059196 
0,029927 
0,007564 
-0,001973 
-0,001973 
-0,007399 
-0,002302 
-0,001315 
-0,001644 
-0,006906 
-0,006906 
-0,007399 
-0,007235 
-0,008386 
0,009702 
0,027296 
0,050316 
0,014963 
-0,006906 
-0,001973 
-0,153580 
0,184000 
1,160236 
-0,022198 
-0,100304 
-0,047685 
-0,041273 
-0,032722 
-0,021541 
-0,007235 
0,017759 
0,041601 
0,073666 
0,084025 
0,060511 
0,030420 
0,002960 
-0,006906 
-0,012004 
-0,011839 
-0,011181 
-0,007728 
-0,008879 
-0,008057 
-0,017265 
-0,017430 
-0,014306 
-0,011839 
0,002631 
0,017594 
0,054427 
0,017430 
-0,006906 
-0,007235 
-0,087643 
0,001809 
1,298195 
0,059689 
-0,110663 
-0,041601 
-0,045877 
-0,033873 
-0,020718 
-0,002302 
0,012168 
0,035353 
0,073501 
0,085176 
0,078599 
0,052618 
0,024336 
0,009866 
0,002960 
0,002466 
0,007728 
0,007893 
0,015950 
0,014306 
0,014799 
0,010853 
0,003124 
0,009866 
0,020390 
0,046863 
0,053112 
0,019732 
0,003453 
-0,002631 
-0,196661 
0,509248 
1,034609 
-0,081065 
-0,072350 
-0,031900 
-0,026474 
-0,012332 
0,002466 
0,008386 
0,030091 
0,057551 
0,095042 
0,098988 
0,086327 
0,056236 
0,034860 
0,024994 
0,019896 
0,019732 
0,019896 
0,015457 
0,009866 
0,007564 
0,009044 
0,007071 
0,010195 
0,007564 
0,059360 
0,033709 
0,007235 
0,002631 
-0,012990 
-0,182520 
1,004847 
0,395296 
-0,101455 
-0,048672 
-0,035682 
-0,026474 
-0,016608 
-0,002631 
0,010524 
0,036997 
0,068733 
0,088794 
0,088465 
0,070542 
0,040615 
0,020225 
0,007235 
0,010688 
0,011017 
0,015292 
0,009866 
0,015457 
0,010195 
0,002302 
0,007235 
0,012168 
0,043575 
0,056565 
0,014799 
0,002302 
0,002466 
-0,169201 
0,321466 
1,077197 
-0,050152 
-0,088465 
-0,030584 
-0,026474 
-0,021870 
-0,012661 
0,007235 
0,029762 
0,058867 
0,094713 
0,098660 
0,083203 
0,050810 
0,023021 
0,009866 
0,002631 
0,010030 
0,009208 
0,006413 
0,011017 
0,010853 
0,002466 
0,001809 
0,009537 
0,020718 
0,054756 
0,017265 
-0,003946 
-0,002302 
-0,104579 
0,060182 
1,189176 
0,019896 
-0,099317 
-0,037655 
-0,031571 
-0,026803 
-0,016937 
0,002138 
0,019732 
0,058209 
0,086163 
0,095042 
0,081394 
0,045383 
0,019896 
0,007235 
0,002302 
0,009208 
0,007235 
0,009702 
0,006906 
0,002960 
0,001315 
-0,001973 
0,007564 
0,021376 
0,055249 
0,016772 
0,002631 
0,002302 
-0,131710 
0,196990 
1,183914 
-0,024172 
-0,094713 
-0,041273 
-0,036997 
-0,026474 
-0,017265 
0,000658 
0,017101 
0,048672 
0,077283 
0,084518 
0,069062 
0,038971 
0,016772 
0,002466 
0,002466 
0,002466 
0,007564 
0,010030 
0,011017 
0,010359 
0,008550 
0,001809 
0,009866 
0,023514 
0,058045 
0,022198 
0,001973 
0,002631 
-0,086656 
0,023021 
1,311514 
0,038806 
-0,100468 
-0,032229 
-0,036668 
-0,027625 
-0,021870 
-0,011510 
0,007564 
0,030091 
0,065115 
0,079256 
0,070213 
0,047028 
0,019732 
0,008715 
0,007564 
0,007235 
0,015292 
0,009702 
0,020718 
0,014963 
0,015128 
0,015621 
0,014470 
0,050152 
0,045219 
0,008715 
-0,002302 
-0,002466 
-0,192057 
0,511550 
1,012575 
-0,084189 
-0,073501 
-0,040944 
-0,036175 
-0,026967 
-0,012332 
-0,001973 
0,016114 
0,048836 
0,074652 
0,084025 
0,070870 
0,039957 
0,024172 
0,009702 
0,006906 
0,010524 
0,015292 
0,010524 
0,010853 
0,007564 
0,006413 
0,010524 
0,025980 
0,051467 
0,011346 
-0,002466 
-0,001973 
-0,117734 
0,125462 
1,190820 
-0,018745 
-0,096357 
-0,036340 
-0,033051 
-0,026309 
-0,020390 
-0,003946 
0,017430 
0,045219 
0,078763 
0,083038 
0,074159 
0,039464 
0,016443 
0,008057 
0,001809 
0,003289 
0,001973 
0,002466 
0,007399 
0,002466 
0,002960 
0,009866 
0,047521 
0,045219 
0,009208 
-0,001973 
-0,001973 
-0,213105 
0,518127 
0,861298 
-0,082216 
-0,070377 
-0,031242 
-0,026474 
-0,014634 
-0,001644 
0,015457 
0,037491 
0,068404 
0,088465 
0,093069 
0,070542 
0,034531 
0,019074 
0,007235 
0,007235 
0,008057 
0,007235 
0,010524 
0,007235 
0,008057 
0,008550 
0,009702 
0,052618 
0,031571 
0,002960 
-0,002631 
-0,007399 
-0,216393 
0,794374 
0,589491 
-0,096522 
-0,056071 
-0,026803 
-0,014141 
-0,007235 
0,002960 
0,020390 
0,049330 
0,084025 
0,099153 
0,092576 
0,071364 
0,044561 
0,020225 
0,008222 
0,007564 
0,006906 
0,007893 
0,001973 
0,006906 
0,006906 
0,007071 
0,012497 
0,059360 
0,024994 
0,002960 
-0,001151 
-0,026474 
-0,156046 
1,101533 
0,266381 
-0,105401 
-0,044561 
-0,036340 
-0,026638 
-0,021212 
-0,006577 
0,014470 
0,039793 
0,066924 
0,083367 
0,069062 
0,042917 
0,020061 
0,008550 
0,008222 
0,006413 
0,006084 
0,010195 
0,010359 
0,006248 
0,007235 
0,002466 
0,010688 
0,045219 
0,046863 
0,011181 
-0,001315 
0,002302 
-0,145358 
0,254542 
1,242781 
-0,031735 
-0,085176 
-0,036011 
-0,031735 
-0,020883 
-0,012990 
-0,000822 
0,020225 
0,051467 
0,074488 
0,084683 
0,069719 
0,048836 
0,028282 
0,014963 
0,007235 
0,006742 
0,007235 
0,010853 
0,010359 
0,007399 
0,002466 
0,010195 
0,014470 
0,059196 
0,034366 
0,007728 
0,002138 
-0,013812 
-0,176765 
1,027210 
0,464193 
-0,100468 
-0,027789 
-0,022034 
-0,011839 
-0,005426 
0,011510 
0,021047 
0,043410 
0,074324 
0,098166 
0,099646 
0,077777 
0,049659 
0,034860 
0,026145 
0,019732 
0,018088 
0,009702 
0,006742 
0,010030 
0,002302 
0,007728 
0,010195 
0,036997 
0,043410 
0,008057 
-0,007399 
-0,000822 
-0,192222 
0,489516 
0,965877 
-0,071199 
-0,072844 
-0,026803 
-0,016279 
-0,004275 
0,002138 
0,015621 
0,040779 
0,068733 
0,098824 
0,100962 
0,090109 
0,062320 
0,040779 
0,026967 
0,015128 
0,011181 
0,011839 
0,001315 
0,007728 
0,000987 
-0,002795 
0,002631 
0,007564 
0,054427 
0,034531 
-0,000493 
-0,001973 
-0,012661 
-0,211460 
0,904050 
0,431964 
-0,103428 
-0,054756 
-0,031735 
-0,021376 
-0,017759 
-0,002302 
0,015621 
0,035024 
0,064129 
0,088136 
0,083532 
0,062813 
0,035189 
0,020718 
0,006906 
0,002138 
0,009373 
0,005262 
0,006906 
-0,001973 
-0,000329 
-0,002795 
0,002631 
0,007071 
0,061333 
0,023185 
-0,002631 
-0,002631 
-0,038642 
-0,137959 
1,084104 
0,268847 
-0,102277 
-0,044561 
-0,026803 
-0,026803 
-0,013812 
-0,000493 
0,020718 
0,049330 
0,078763 
0,093727 
0,084847 
0,060511 
0,030091 
0,014963 
0,010359 
0,010195 
0,009866 
0,003453 
0,008386 
0,003782 
0,001151 
-0,002466 
0,001809 
0,033051 
0,049165 
0,007564 
-0,007399 
-0,005920 
-0,158513 
0,220833 
1,152014 
-0,050974 
-0,100468 
-0,040286 
-0,045055 
-0,026309 
-0,022034 
-0,006577 
0,015292 
0,051632 
0,072679 
0,074159 
0,061991 
0,031407 
0,014141 
0,002631 
0,006248 
0,002960 
0,002631 
0,008879 
0,002960 
0,001809 
0,002138 
-0,003946 
0,002302 
0,026309 
0,040944 
0,004933 
-0,012004 
-0,012004 
-0,149140 
0,259475 
1,212690 
-0,058374 
-0,097180 
-0,045548 
-0,041273 
-0,031900 
-0,027789 
-0,007399 
0,008386 
0,032558 
0,058702 
0,064786 
0,049659 
0,019732 
0,008057 
-0,002466 
-0,007399 
-0,012332 
-0,012661 
-0,003124 
-0,006084 
-0,001480 
-0,007399 
0,004769 
0,003618 
0,059360 
0,021376 
-0,006084 
-0,007399 
-0,026474 
-0,141412 
1,113537 
0,315382 
-0,099153 
-0,032229 
-0,024336 
-0,012004 
0,002631 
0,008222 
0,020883 
0,054592 
0,076297 
0,093233 
0,088136 
0,065280 
0,036997 
0,024336 
0,016937 
0,010195 
0,007893 
-0,005920 
0,001973 
0,002631 
-0,002302 
-0,002302 
0,002302 
0,045548 
0,041601 
0,001315 
-0,005755 
-0,007235 
-0,209158 
0,464522 
0,952393 
-0,088629 
-0,087807 
-0,035517 
-0,031078 
-0,022363 
-0,012990 
-0,001973 
0,032229 
0,058702 
0,088300 
0,088958 
0,065773 
0,032722 
0,014141 
0,009702 
-0,002631 
-0,002466 
0,007564 
0,001809 
-0,000164 
-0,005097 
-0,010688 
0,002466 
0,043410 
0,031407 
-0,003946 
-0,017265 
-0,026474 
-0,228890 
0,524375 
0,826767 
-0,109348 
-0,090109 
-0,046370 
-0,036504 
-0,034695 
-0,012332 
0,003289 
0,028940 
0,059853 
0,074159 
0,075310 
0,057880 
0,026145 
0,009044 
0,003618 
0,002960 
0,007893 
0,007564 
0,002960 
0,006742 
0,007235 
0,008550 
0,008715 
0,041601 
0,054263 
0,009866 
-0,002631 
0,001480 
-0,181698 
0,260954 
1,023592 
-0,064951 
-0,077283 
-0,016937 
-0,021541 
-0,013483 
0,007071 
0,016772 
0,044232 
0,082216 
0,100139 
0,094220 
0,084025 
0,045383 
0,026474 
0,009208 
0,001151 
0,009537 
0,007564 
0,010195 
0,006248 
0,006742 
0,002466 
0,010853 
0,023185 
0,056071 
0,020883 
-0,001973 
-0,012332 
-0,119542 
0,092411 
1,213512 
0,024500 
-0,109183 
-0,051796 
-0,046206 
-0,037326 
-0,030091 
-0,013155 
0,009702 
0,040615 
0,064786 
0,069555 
0,055743 
0,012497 
0,010030 
-0,001151 
0,001973 
-0,003946 
-0,006906 
0,007564 
-0,001973 
-0,004769 
-0,002466 
0,002466 
0,018745 
0,052618 
0,007235 
-0,007399 
-0,006906 
-0,122667 
0,111156 
1,314638 
-0,007399 
-0,105730 
-0,045548 
-0,040122 
-0,044726 
-0,022034 
-0,006577 
0,006577 
0,034860 
0,062813 
0,064786 
0,057551 
0,026474 
0,015457 
0,002302 
-0,013812 
-0,003618 
-0,003124 
-0,002466 
0,002960 
0,007235 
0,010524 
0,019732 
0,070377 
0,036668 
0,007071 
0,007235 
-0,010853 
-0,197483 
0,940225 
0,581269 
-0,094549 
-0,035846 
-0,025980 
-0,020883 
-0,012332 
0,005755 
0,020225 
0,040450 
0,070870 
0,103428 
0,079256 
0,068733 
0,041437 
0,020390 
0,014634 
0,009537 
0,010030 
0,010359 
0,010195 
0,011017 
0,007893 
0,009702 
0,015457 
0,063800 
0,026967 
-0,002795 
-0,012990 
-0,036833 
-0,193208 
1,040036 
0,274602 
-0,112307 
-0,050316 
-0,026803 
-0,031242 
-0,015292 
-0,001973 
0,013648 
0,040944 
0,069884 
0,083532 
0,078763 
0,059525 
0,029927 
0,010524 
0,010195 
0,007399 
-0,002302 
0,000658 
-0,006577 
0,002138 
-0,001973 
0,002302 
0,006577 
0,059525 
0,025158 
-0,002466 
-0,008386 
-0,036504 
-0,164268 
1,056479 
0,294334 
-0,120365 
-0,049823 
-0,040450 
-0,029269 
-0,016608 
-0,003618 
0,026145 
0,040122 
0,075146 
0,083861 
0,068897 
0,023843 
0,015786 
-0,001644 
0,001151 
-0,004933 
-0,003782 
0,002302 
0,002960 
0,002138 
0,002960 
0,007893 
0,016114 
0,059689 
0,050316 
-0,009702 
0,008715 
-0,007235 
-0,218202 
0,770038 
0,616129 
-0,098660 
-0,060182 
-0,036668 
-0,031735 
-0,012990 
0,002631 
0,015621 
0,039464 
0,075146 
0,097508 
0,093891 
0,054427 
0,039793 
0,021541 
0,008879 
0,007235 
0,009208 
0,007564 
-0,004933 
0,005262 
0,000329 
-0,002795 
0,007564 
0,023349 
0,062649 
0,017430 
0,002960 
-0,006577 
-0,107374 
0,067088 
1,228311 
0,024829 
-0,110170 
-0,046534 
-0,046370 
-0,035517 
-0,023843 
-0,000822 
0,016772 
0,048836 
0,069391 
0,083696 
0,062978 
0,034860 
0,012168 
0,013319 
-0,005426 
0,006906 
0,010359 
0,012661 
0,019896 
0,010359 
0,015128 
0,010195 
0,020883 
0,035517 
0,073172 
0,028776 
0,006248 
0,008715 
-0,104415 
0,127106 
1,333548 
0,005262 
-0,082052 
-0,022198 
-0,019567 
-0,010853 
0,007071 
0,010195 
0,030913 
0,057223 
0,084354 
0,095864 
0,085176 
0,054920 
0,049494 
0,030256 
0,020061 
0,014634 
0,015621 
0,015292 
0,012004 
0,007071 
0,010853 
0,001480 
0,016279 
0,025323 
0,064293 
0,037984 
0,007893 
0,011017 
-0,064622 
-0,021541 
1,297208 
0,097344 
-0,096686 
-0,030913 
-0,031407 
-0,020883 
-0,016937 
-0,002631 
0,011675 
0,033215 
0,065773 
0,078928 
0,073995 
0,050645 
0,031900 
0,026145 
0,014963 
0,010853 
0,016772 
0,009208 
0,006413 
0,015457 
0,009537 
0,004111 
-0,008879 
0,010359 
0,055578 
0,045055 
0,004275 
-0,012990 
-0,007728 
-0,213762 
0,481130 
0,942034 
-0,098988 
-0,078434 
-0,051139 
-0,047521 
-0,036340 
-0,027460 
-0,012990 
0,011181 
0,054756 
0,067746 
0,076461 
0,056071 
0,033544 
0,015786 
0,007564 
0,002466 
-0,007728 
0,004275 
0,007564 
0,003782 
0,002466 
-0,013483 
-0,000164 
0,002466 
0,015621 
0,039464 
0,064622 
0,010524 
0,001973 
0,006577 
-0,208007 
0,492311 
0,954038 
-0,078928 
-0,080079 
-0,033051 
-0,031078 
-0,026638 
-0,007235 
0,019732 
0,039793 
0,064293 
0,087643 
0,088300 
0,074817 
0,047521 
0,032558 
0,014799 
0,022527 
0,015128 
0,015128 
0,010688 
0,008386 
0,012168 
0,003618 
0,002466 
-0,002631 
0,010359 
0,010524 
0,054098 
0,057223 
0,013977 
0,002960 
-0,006248 
-0,221162 
0,639149 
0,787796 
-0,090109 
-0,043903 
-0,029433 
-0,017265 
-0,000164 
0,008057 
0,020390 
0,049330 
0,077777 
0,105237 
0,093562 
0,079092 
0,045055 
0,025816 
0,010524 
0,009044 
0,006906 
0,002302 
0,007071 
0,014634 
0,006906 
-0,002795 
-0,001973 
-0,004769 
-0,001973 
0,005920 
0,034531 
0,058374 
0,008057 
-0,005426 
-0,007235 
-0,218531 
0,473072 
0,815256 
-0,096851 
-0,087314 
-0,047192 
-0,041766 
-0,031900 
-0,021541 
-0,002302 
0,016279 
0,050481 
0,069062 
0,073995 
0,058538 
0,024665 
0,011510 
0,007235 
0,002631 
0,014799 
0,010688 
0,011017 
0,010195 
0,012661 
0,002138 
0,010195 
0,002466 
0,015621 
0,029927 
0,058374 
0,017101 
-0,002631 
0,000658 
-0,167721 
0,293512 
1,211374 
-0,045877 
-0,081887 
-0,040779 
-0,038313 
-0,027789 
-0,017265 
-0,002795 
0,009537 
0,042259 
0,068568 
0,079750 
0,065280 
0,041108 
0,021870 
0,009866 
-0,005097 
-0,001973 
0,014963 
0,010195 
0,025651 
0,011017 
0,010030 
0,010359 
0,008879 
0,020061 
0,064293 
0,041108 
0,009208 
0,009208 
-0,023185 
-0,194853 
0,996297 
0,245169 
-0,103264 
-0,045219 
-0,032558 
-0,026638 
-0,016937 
0,004604 
0,011346 
0,037984 
0,065609 
0,084025 
0,075146 
0,045877 
0,030091 
0,010030 
-0,002302 
0,014799 
0,007564 
0,007235 
-0,001973 
0,007564 
0,007564 
0,010524 
0,009702 
0,032887 
0,055907 
0,017759 
-0,007235 
-0,002631 
-0,156046 
0,237605 
1,137051 
-0,012332 
-0,095042 
-0,036340 
-0,032064 
-0,021541 
-0,011839 
0,001151 
0,024994 
0,057716 
0,084025 
0,089122 
0,076132 
0,041437 
0,021705 
0,010195 
0,006906 
0,008222 
0,009866 
0,007728 
0,007235 
0,008222 
0,002302 
0,010030 
0,011839 
0,062813 
0,016937 
0,002631 
-0,015786 
-0,061662 
-0,095864 
1,152014 
0,136150 
-0,119214 
-0,051467 
-0,055743 
-0,041766 
-0,030420 
-0,016608 
0,009537 
0,043410 
0,070870 
0,082545 
0,068897 
0,031735 
0,010853 
-0,001973 
0,008057 
-0,001644 
0,003453 
0,001809 
0,009208 
-0,007399 
0,002466 
-0,015292 
0,005591 
0,027789 
0,048836 
0,007893 
-0,013483 
-0,021047 
-0,165748 
0,270656 
1,095449 
-0,054427 
-0,098824 
-0,040615 
-0,041601 
-0,030256 
-0,004769 
0,003124 
0,030256 
0,054427 
0,083861 
0,083532 
0,064622 
0,037819 
0,015786 
0,001480 
-0,003124 
-0,002795 
0,002960 
0,002302 
-0,012661 
0,000658 
-0,001644 
-0,002302 
0,002302 
0,027131 
0,059525 
0,016937 
-0,003124 
0,000658 
-0,138781 
0,197483 
1,264979 
-0,038971 
-0,098331 
-0,051139 
-0,046699 
-0,039464 
-0,021870 
-0,008879 
0,025158 
0,039464 
0,069062 
0,073830 
0,064622 
0,039793 
0,018910 
0,007071 
0,002631 
0,003289 
0,006906 
0,007564 
0,007399 
0,007564 
0,001809 
0,007235 
0,010195 
0,041437 
0,050481 
0,009373 
-0,008057 
-0,016114 
-0,216722 
0,580447 
0,931675 
-0,094220 
-0,075968 
-0,046041 
-0,042259 
-0,030420 
-0,017265 
0,001480 
0,018088 
0,045548 
0,069719 
0,072021 
0,051303 
0,024994 
0,009866 
0,007728 
0,007071 
0,010359 
0,010524 
0,009702 
0,010195 
0,010359 
0,015292 
0,010359 
0,024665 
0,076790 
0,059031 
0,015128 
0,007071 
0,001480 
-0,183013 
0,937759 
0,504315 
-0,088629 
-0,029762 
-0,016937 
-0,007235 
0,005591 
0,025651 
0,035024 
0,061333 
0,087478 
0,115760 
0,111650 
0,084025 
0,050810 
0,045712 
0,020061 
0,020225 
0,020718 
0,015457 
0,007399 
-0,002466 
0,007893 
-0,008057 
0,003618 
0,002466 
0,069391 
0,037162 
-0,004769 
-0,000493 
-0,017265 
-0,171832 
1,011753 
0,367178 
-0,105401 
-0,046699 
-0,030749 
-0,017430 
-0,012004 
0,003124 
0,023678 
0,041766 
0,078270 
0,088300 
0,088794 
0,050481 
0,023185 
0,014799 
0,007564 
-0,002795 
0,007728 
0,010853 
0,007235 
0,010359 
0,004111 
-0,004275 
0,003289 
0,010195 
0,028776 
0,059525 
0,015457 
-0,002795 
-0,003618 
-0,152758 
0,194030 
1,153823 
-0,037326 
-0,094055 
-0,044232 
-0,032393 
-0,021870 
-0,011839 
0,008386 
0,029927 
0,059196 
0,088958 
0,093562 
0,079256 
0,049330 
0,025651 
0,015621 
-0,005755 
0,007399 
0,007893 
0,008222 
0,010195 
0,007399 
-0,003124 
-0,012332 
-0,002466 
0,009702 
0,012332 
0,059031 
0,024994 
-0,002302 
-0,004933 
-0,077777 
-0,039299 
1,176186 
0,105401 
-0,107046 
-0,042259 
-0,041437 
-0,032064 
-0,026145 
-0,001315 
0,030420 
0,042259 
0,078105 
0,080079 
0,058867 
0,041766 
0,010853 
-0,002466 
-0,016608 
-0,012332 
-0,006906 
-0,006906 
-0,006248 
-0,002302 
-0,010688 
-0,007399 
-0,010359 
0,000329 
0,007564 
0,061004 
0,045548 
-0,002795 
-0,007399 
-0,016608 
-0,202416 
0,998928 
0,512865 
-0,112801 
-0,050316 
-0,041930 
-0,036504 
-0,024336 
-0,009702 
0,014963 
0,038313 
0,056729 
0,079750 
0,079092 
0,055414 
0,032558 
0,016114 
0,007728 
0,007728 
0,007071 
0,015292 
0,010688 
0,015128 
0,020225 
0,008057 
0,008879 
0,014963 
0,025323 
0,072186 
0,053934 
0,011839 
0,002960 
-0,012004 
-0,178738 
1,043653 
0,446105 
-0,104744 
-0,048179 
-0,031900 
-0,022363 
-0,011839 
-0,001315 
0,011181 
0,049987 
0,074652 
0,093562 
0,106717 
0,084189 
0,054098 
0,039135 
0,028118 
0,025323 
0,021047 
0,024994 
0,020225 
0,014963 
0,015457 
0,007071 
-0,002302 
0,007728 
0,020554 
0,073830 
0,040944 
0,004440 
-0,002795 
-0,005755 
-0,199457 
0,905365 
0,540490 
-0,099811 
-0,049330 
-0,031900 
-0,021870 
-0,006248 
-0,002631 
0,014470 
0,034860 
0,071035 
0,090602 
0,089616 
0,055907 
0,038148 
0,021376 
0,010359 
0,010853 
0,010688 
0,012661 
0,015457 
0,011510 
0,010195 
0,007071 
0,005755 
0,002138 
0,024994 
0,059196 
0,059689 
0,010688 
0,004933 
-0,001973 
-0,216558 
0,632901 
0,804733 
-0,101619 
-0,074652 
-0,041601 
-0,036175 
-0,032722 
-0,016937 
-0,002795 
0,021212 
0,054427 
0,086985 
0,076954 
0,059853 
0,030420 
0,010853 
0,002960 
0,004440 
0,007399 
0,007071 
0,009373 
0,010030 
0,007071 
0,002960 
0,003124 
0,002960 
0,009866 
0,020554 
0,063800 
0,029927 
0,001809 
-0,007399 
-0,074981 
-0,054920 
1,182928 
0,093398 
-0,101126 
-0,049330 
-0,036011 
-0,026638 
-0,020390 
-0,003618 
0,023349 
0,044561 
0,075310 
0,083696 
0,076297 
0,048343 
0,020390 
0,007893 
0,002302 
0,003124 
0,002960 
0,007235 
0,006906 
0,007235 
0,007399 
0,007399 
-0,001973 
0,010688 
0,024007 
0,065773 
0,031078 
0,002138 
0,002631 
-0,079585 
0,001480 
1,204797 
0,116747 
-0,106223 
-0,037655 
-0,031735 
-0,027789 
-0,016608 
-0,005097 
0,014470 
0,041108 
0,068897 
0,078763 
0,065609 
0,039793 
0,019074 
0,007399 
0,002138 
0,002960 
0,011017 
0,009373 
0,010524 
0,015457 
0,014634 
0,007564 
0,007564 
0,010688 
0,028118 
0,064129 
0,020883 
0,000164 
-0,001644 
-0,112307 
0,100633 
1,303950 
-0,003124 
-0,105072 
-0,045712 
-0,040122 
-0,036504 
-0,031078 
-0,022527 
-0,000329 
0,025980 
0,057880 
0,068897 
0,058538 
0,030091 
0,014306 
-0,000329 
-0,001973 
-0,002795 
0,002302 
0,007235 
0,007235 
0,014470 
0,017265 
0,010030 
0,020718 
0,033873 
0,073995 
0,027296 
0,002960 
-0,006577 
-0,093562 
0,020225 
1,308390 
0,043410 
-0,106059 
-0,046206 
-0,043410 
-0,035682 
-0,026803 
-0,012990 
-0,001973 
0,029433 
0,060182 
0,083532 
0,069062 
0,033215 
0,016114 
0,007071 
-0,002631 
0,004769 
0,007893 
0,011017 
0,007893 
0,010853 
0,009866 
0,009537 
0,016114 
0,063964 
0,044397 
0,002631 
-0,006577 
-0,009702 
-0,220668 
0,810652 
0,603139 
-0,110499 
-0,067417 
-0,046370 
-0,036340 
-0,034531 
-0,025816 
-0,001973 
0,020225 
0,054427 
0,082874 
0,076132 
0,056071 
0,025158 
0,008057 
0,004111 
0,002466 
0,002960 
0,007564 
0,006906 
0,010030 
0,006742 
0,007564 
0,015292 
0,035846 
0,070048 
0,018252 
-0,002466 
-0,007399 
-0,134506 
0,169859 
1,152179 
-0,029105 
-0,098660 
-0,036504 
-0,026309 
-0,021870 
-0,005097 
0,009702 
0,034531 
0,066266 
0,083038 
0,093727 
0,079585 
0,044890 
0,021870 
0,009373 
0,007235 
0,007564 
0,010195 
0,014799 
0,009866 
0,008715 
0,002466 
0,010359 
0,011017 
0,054592 
0,050152 
0,007564 
0,003289 
-0,009702 
-0,219682 
0,715610 
0,687821 
-0,089616 
-0,057880 
-0,031735 
-0,023185 
-0,011510 
0,002466 
0,021212 
0,046534 
0,077941 
0,103099 
0,104086 
0,073666 
0,044726 
0,025158 
0,010688 
0,008222 
0,007564 
0,007728 
0,012332 
0,015786 
0,006577 
0,006577 
0,007564 
0,020554 
0,058867 
0,057880 
0,002960 
-0,012004 
-0,018416 
-0,226095 
0,648851 
0,791578 
-0,108361 
-0,077612 
-0,046370 
-0,038806 
-0,031407 
-0,013812 
0,003782 
0,020554 
0,053441 
0,074488 
0,071857 
0,049987 
0,021541 
0,009537 
-0,002795 
-0,002631 
0,002960 
0,005920 
0,008222 
0,008550 
0,002302 
0,002631 
0,002631 
0,010195 
0,032558 
0,058374 
0,016114 
-0,007399 
-0,006906 
-0,140261 
0,212940 
1,300168 
-0,040779 
-0,094055 
-0,040286 
-0,036504 
-0,031242 
-0,021870 
-0,005920 
0,013155 
0,041766 
0,073337 
0,079256 
0,068239 
0,043081 
0,014963 
0,007564 
0,007893 
0,003124 
0,007235 
0,012004 
0,015292 
0,015292 
0,010030 
0,007728 
0,016443 
0,034038 
0,074324 
0,034531 
0,008879 
0,006084 
-0,076626 
0,048179 
1,304279 
0,060511 
-0,085340 
-0,021870 
-0,018416 
-0,011839 
-0,000822 
0,010195 
0,029598 
0,056236 
0,084847 
0,100139 
0,085012 
0,062484 
0,043081 
0,024665 
0,018910 
0,014963 
0,013483 
0,008386 
0,008386 
0,007564 
0,002960 
0,002631 
0,008057 
0,015292 
0,063800 
0,039135 
0,004111 
0,003124 
-0,027954 
-0,128751 
1,088214 
0,262928 
-0,105237 
-0,041437 
-0,026967 
-0,017265 
-0,006577 
0,006742 
0,020390 
0,054920 
0,079421 
0,098495 
0,086327 
0,069391 
0,041108 
0,024994 
0,020554 
0,015292 
0,009537 
0,010359 
0,006577 
0,007564 
0,007893 
0,002960 
0,002960 
0,003618 
0,015786 
0,059360 
0,056236 
0,006742 
-0,002795 
-0,005097 
-0,220668 
0,805226 
0,570745 
-0,099317 
-0,054263 
-0,031735 
-0,027954 
-0,015786 
-0,002631 
0,015292 
0,044890 
0,077119 
0,094878 
0,094713 
0,071857 
0,043575 
0,030091 
0,014141 
0,007071 
0,010195 
0,010688 
0,010030 
0,007728 
0,007235 
-0,002466 
-0,002795 
-0,001644 
0,002466 
0,007728 
0,016114 
0,059853 
0,046863 
0,006248 
-0,007728 
-0,018581 
-0,193044 
0,971961 
0,555289 
-0,102277 
-0,052618 
-0,031571 
-0,021870 
-0,015786 
-0,002466 
0,021870 
0,047685 
0,079421 
0,098824 
0,093891 
0,075146 
0,049330 
0,030091 
0,019403 
0,009866 
0,009866 
0,010688 
0,008057 
0,007399 
0,002631 
0,002466 
-0,002302 
-0,002631 
0,002631 
0,002631 
0,007893 
0,008057 
0,020718 
0,038477 
0,069226 
0,031407 
0,007728 
0,004604 
-0,142727 
0,226259 
1,255113 
-0,021376 
-0,083038 
-0,025980 
-0,024500 
-0,017759 
0,000658 
0,010524 
0,024007 
0,054756 
0,088300 
0,088136 
0,083038 
0,056236 
0,032064 
0,018252 
0,009044 
0,007728 
0,008057 
0,008386 
0,007893 
0,006906 
-0,001973 
-0,007399 
-0,008057 
-0,007399 
-0,006906 
-0,001973 
0,007728 
0,015128 
0,030256 
0,058374 
0,021541 
-0,002795 
-0,006248 
-0,129737 
0,128257 
1,314145 
-0,007235 
-0,095371 
-0,041273 
-0,036340 
-0,028447 
-0,009702 
0,007071 
0,023185 
0,049001 
0,082381 
0,098495 
0,088300 
0,067088 
0,044890 
0,025158 
0,015292 
0,010030 
0,010524 
0,009702 
0,014634 
0,007235 
0,007235 
-0,002466 
0,002302 
-0,001973 
0,002960 
0,003289 
0,020718 
0,049001 
0,069719 
0,021047 
0,002302 
0,000658 
-0,181040 
0,487542 
0,976400 
-0,072844 
-0,067253 
-0,026967 
-0,021212 
-0,006248 
0,006413 
0,021870 
0,037326 
0,069391 
0,099975 
0,103592 
0,083861 
0,057716 
0,036340 
0,019074 
0,010359 
0,010359 
0,010524 
0,007893 
0,007728 
0,001973 
0,001480 
-0,002795 
-0,007728 
-0,002302 
0,008715 
0,020718 
0,063635 
0,025323 
-0,006248 
-0,002795 
-0,119214 
0,079092 
1,178488 
0,005591 
-0,103757 
-0,045548 
-0,036668 
-0,027296 
-0,013812 
0,003618 
0,024336 
0,061333 
0,088629 
0,099153 
0,085012 
0,045877 
0,027954 
0,011346 
0,002960 
0,002466 
0,008057 
0,006413 
0,001809 
0,003124 
-0,002795 
-0,007399 
-0,006906 
0,002960 
0,012332 
0,064786 
0,027296 
-0,002302 
-0,002466 
-0,059031 
-0,071199 
1,169937 
0,128586 
-0,109348 
-0,046206 
-0,042752 
-0,031407 
-0,017430 
-0,001151 
0,022198 
0,049165 
0,093562 
0,101619 
0,089616 
0,057551 
0,021212 
0,007893 
-0,002466 
-0,001973 
-0,002631 
0,004111 
0,001480 
0,002302 
0,000000 
-0,002466 
0,002960 
0,002960 
0,015128 
0,047521 
0,053769 
0,004111 
-0,006906 
-0,012661 
-0,225108 
0,529473 
0,933812 
-0,101455 
-0,088465 
-0,051303 
-0,046863 
-0,036175 
-0,026309 
-0,006906 
0,018581 
0,046370 
0,075310 
0,073501 
0,053605 
0,012826 
0,001151 
-0,011839 
-0,016937 
-0,011839 
-0,011181 
-0,007235 
-0,007399 
-0,005755 
-0,008386 
-0,008057 
-0,006906 
0,004769 
0,010524 
0,053605 
0,049659 
0,007235 
-0,006248 
-0,014634 
-0,226259 
0,813448 
0,666445 
-0,102277 
-0,064293 
-0,045877 
-0,033215 
-0,026638 
-0,007399 
0,007893 
0,027131 
0,060676 
0,084025 
0,085012 
0,056071 
0,030584 
0,014799 
0,002138 
-0,002631 
-0,001973 
0,007728 
0,011346 
0,010195 
0,010030 
0,006577 
0,002466 
0,007564 
0,024994 
0,059031 
0,067088 
0,016608 
-0,001973 
-0,001973 
-0,205376 
0,586366 
0,926413 
-0,079585 
-0,063635 
-0,031407 
-0,024007 
-0,011181 
0,000987 
0,016772 
0,043246 
0,076790 
0,103428 
0,103264 
0,084354 
0,050974 
0,027296 
0,015128 
0,010359 
0,010195 
0,011510 
0,009537 
0,007071 
0,007893 
0,008222 
0,007564 
0,008386 
0,020390 
0,045877 
0,069884 
0,026309 
0,007235 
0,007235 
-0,146181 
0,255693 
1,143299 
-0,032229 
-0,087807 
-0,026638 
-0,022198 
-0,016937 
-0,006248 
0,009044 
0,030091 
0,064951 
0,093891 
0,102441 
0,081065 
0,044726 
0,021376 
0,007728 
-0,000493 
0,003453 
0,003289 
0,002466 
0,007235 
0,005591 
0,006742 
0,002466 
0,002631 
0,007564 
0,018745 
0,038806 
0,075310 
0,030749 
0,010195 
0,007235 
-0,089616 
0,052618 
1,197069 
0,026309 
-0,094220 
-0,025980 
-0,032064 
-0,017265 
-0,006248 
0,008715 
0,033709 
0,064458 
0,098166 
0,108690 
0,102441 
0,064786 
0,037162 
0,016114 
0,007071 
0,002302 
0,008222 
0,007728 
0,007728 
0,005591 
0,001809 
0,001809 
0,007235 
0,007564 
0,010030 
0,015621 
0,025816 
0,069719 
0,049659 
0,015457 
0,002631 
-0,012990 
-0,179889 
1,007478 
0,390198 
-0,086492 
-0,040122 
-0,021212 
-0,016608 
-0,006906 
0,009537 
0,029433 
0,054427 
0,090767 
0,113294 
0,104415 
0,075146 
0,039793 
0,015786 
0,007399 
-0,003124 
0,006742 
0,008222 
0,009537 
0,010524 
0,006248 
0,002302 
0,002466 
0,002631 
0,002960 
0,013483 
0,022198 
0,037491 
0,073995 
0,037326 
0,011346 
0,008879 
-0,125626 
0,218860 
1,298524 
-0,012332 
-0,070542 
-0,016443 
-0,016443 
-0,007235 
0,005920 
0,020061 
0,040122 
0,068239 
0,098495 
0,113952 
0,099482 
0,070706 
0,045219 
0,020390 
0,015128 
0,007235 
0,010195 
0,010359 
0,009866 
0,013977 
0,007893 
0,001973 
0,002960 
-0,002466 
0,002138 
0,017101 
0,024007 
0,064622 
0,030584 
0,000164 
-0,000822 
-0,064458 
-0,057387 
1,302963 
0,117405 
-0,112801 
-0,055578 
-0,047521 
-0,036668 
-0,020718 
-0,010688 
0,002302 
0,030256 
0,064129 
0,084354 
0,074324 
0,043903 
0,018416 
0,004769 
-0,002631 
-0,002795 
0,003124 
0,002631 
0,002631 
0,008222 
0,009208 
0,008715 
-0,001315 
-0,000822 
0,010524 
0,020225 
0,050152 
0,060511 
0,012332 
-0,001973 
0,007728 
-0,198470 
0,561537 
0,884483 
-0,082545 
-0,065444 
-0,031242 
-0,015292 
-0,011510 
0,002960 
0,019567 
0,039464 
0,072515 
0,105072 
0,105072 
0,098002 
0,055085 
0,033544 
0,020061 
0,010853 
0,015292 
0,010195 
0,015128 
0,009866 
0,008386 
0,001151 
-0,002631 
-0,001973 
0,002960 
0,007728 
0,055249 
0,046041 
0,003453 
0,000822 
-0,010030 
-0,224286 
0,778424 
0,622870 
-0,104250 
-0,070706 
-0,045219 
-0,032229 
-0,026967 
-0,016937 
0,007399 
0,033544 
0,067417 
0,095535 
0,093398 
0,066924 
0,030584 
0,010195 
-0,002302 
-0,001973 
-0,002302 
0,002960 
0,003618 
-0,002795 
-0,002631 
0,001809 
0,002631 
0,004769 
0,020718 
0,015292 
0,070213 
0,037655 
0,005426 
0,006742 
-0,050974 
-0,112143 
1,119128 
0,195510 
-0,115760 
-0,049494 
-0,039957 
-0,036340 
-0,026803 
0,002466 
0,014306 
0,053276 
0,084518 
0,103592 
0,084683 
0,059853 
0,028940 
0,014799 
0,002302 
0,010359 
-0,003124 
0,008057 
0,007728 
0,002631 
0,003453 
0,007071 
0,007728 
0,005591 
0,007235 
0,020225 
0,052618 
0,057551 
0,011017 
-0,001644 
-0,016114 
-0,223628 
0,576172 
0,886456 
-0,096029 
-0,075639 
-0,026803 
-0,031407 
-0,021212 
-0,001644 
0,002960 
0,043081 
0,064129 
0,097837 
0,101784 
0,085176 
0,052783 
0,019896 
0,015292 
0,007071 
0,010195 
0,009866 
0,010195 
0,010195 
0,006742 
0,007728 
-0,000822 
0,003124 
0,002466 
0,015128 
0,012497 
0,059360 
0,033051 
-0,002631 
-0,006906 
-0,082381 
0,065444 
1,326970 
0,031242 
-0,099646 
-0,044068 
-0,039793 
-0,030584 
-0,020225 
-0,008057 
0,011017 
0,029598 
0,067582 
0,084518 
0,072021 
0,040450 
0,010853 
0,007564 
0,010030 
0,008222 
0,015457 
0,009866 
0,010195 
0,009537 
0,007071 
0,015621 
0,010195 
0,010359 
0,021047 
0,049659 
0,060347 
0,001809 
0,007564 
0,003124 
-0,201101 
0,551507 
0,918849 
-0,068239 
-0,065280 
-0,026967 
-0,022527 
-0,012004 
-0,004769 
0,011510 
0,038477 
0,070542 
0,102606 
0,107374 
0,084847 
0,058045 
0,021047 
0,020061 
0,010195 
0,010195 
0,010853 
0,008222 
-0,001644 
-0,012004 
-0,002302 
-0,001644 
-0,007235 
0,009208 
0,042424 
0,061169 
0,012990 
0,007071 
0,002960 
-0,177258 
0,389212 
1,033458 
-0,068075 
-0,077119 
-0,026474 
-0,021047 
-0,016114 
0,009208 
0,017594 
0,038477 
0,079750 
0,104415 
0,120200 
0,103921 
0,071528 
0,046206 
0,030420 
0,020225 
0,020225 
0,014963 
0,010524 
0,010195 
0,005262 
0,007728 
-0,001644 
0,000822 
0,012990 
0,035517 
0,064129 
0,012826 
-0,001644 
-0,006906 
-0,172161 
0,309791 
1,091174 
-0,050810 
-0,087643 
-0,041273 
-0,031571 
-0,021870 
-0,010853 
0,001480 
0,028447 
0,073666 
0,097180 
0,103757 
0,084025 
0,057387 
0,026474 
0,012168 
0,007071 
0,007399 
0,007399 
0,004604 
0,007399 
0,001809 
-0,001973 
-0,002302 
0,007071 
0,006906 
0,015950 
0,053276 
0,052454 
0,018088 
-0,002795 
-0,000164 
-0,219353 
0,819861 
0,475046 
-0,089780 
-0,049823 
-0,029433 
-0,020390 
-0,009208 
0,004275 
0,023843 
0,049494 
0,079256 
0,109019 
0,102113 
0,071199 
0,040122 
0,015621 
0,008879 
0,002138 
0,002138 
0,007235 
0,002631 
0,003453 
0,002302 
-0,002466 
0,007728 
0,002138 
0,002466 
0,010853 
0,032558 
0,058702 
0,016608 
-0,002466 
-0,003453 
-0,149634 
0,229055 
1,256429 
-0,039793 
-0,095864 
-0,043739 
-0,035024 
-0,031900 
-0,002631 
0,004275 
0,021047 
0,048179 
0,087314 
0,092082 
0,079750 
0,043410 
0,024500 
0,008057 
-0,003782 
-0,006906 
0,003618 
0,002302 
-0,002631 
-0,001973 
-0,001480 
-0,007399 
0,001973 
0,002466 
0,019567 
0,025651 
0,065444 
0,030420 
0,007564 
-0,001480 
-0,047357 
-0,062813 
1,279121 
0,157855 
-0,099811 
-0,040944 
-0,040122 
-0,017594 
-0,011839 
0,006084 
0,029598 
0,053276 
0,088629 
0,113294 
0,107868 
0,075146 
0,054756 
0,039135 
0,016279 
0,019732 
0,011675 
0,012004 
0,014963 
0,002302 
0,006906 
0,006742 
0,002302 
0,011181 
0,024172 
0,064458 
0,056400 
0,007564 
0,001809 
-0,014634 
-0,160815 
0,985280 
0,404175 
-0,095206 
-0,038477 
-0,021870 
-0,009537 
-0,003124 
0,010195 
0,027954 
0,055249 
0,090931 
0,118227 
0,112801 
0,079750 
0,056894 
0,034695 
0,019239 
0,014799 
0,007728 
0,011017 
0,007235 
0,009208 
0,002466 
0,002960 
0,002960 
0,010688 
0,042424 
0,059525 
0,008222 
-0,002302 
-0,007728 
-0,191893 
0,441008 
0,987911 
-0,075803 
-0,076790 
-0,033051 
-0,016279 
-0,012004 
0,002466 
0,020225 
0,043903 
0,080243 
0,102606 
0,108361 
0,088958 
0,054592 
0,025323 
0,015457 
0,007071 
0,007728 
0,009373 
0,007564 
0,010853 
0,002466 
0,002302 
0,003453 
0,007071 
0,009702 
0,064458 
0,028611 
-0,003124 
-0,007399 
-0,028776 
-0,171174 
1,034281 
0,335113 
-0,113952 
-0,053605 
-0,036997 
-0,027460 
-0,021047 
-0,003453 
0,020554 
0,048836 
0,081394 
0,099482 
0,093398 
0,062813 
0,033873 
0,011181 
-0,001480 
0,002960 
0,003289 
0,010195 
0,003124 
-0,002631 
-0,003124 
-0,006577 
0,002960 
0,007728 
0,010853 
0,055743 
0,048508 
0,011017 
-0,007399 
-0,013812 
-0,232836 
0,837290 
0,560550 
-0,121187 
-0,080079 
-0,050974 
-0,046534 
-0,036504 
-0,021870 
-0,001151 
0,020718 
0,049823 
0,078763 
0,069555 
0,043410 
0,015950 
-0,003453 
-0,012661 
-0,012661 
-0,011181 
-0,007399 
-0,007235 
-0,001644 
-0,001315 
-0,006906 
-0,002302 
0,008715 
0,018745 
0,059196 
0,020225 
-0,005097 
-0,001973 
-0,077941 
-0,012661 
1,312829 
0,077941 
-0,109676 
-0,046041 
-0,041601 
-0,035353 
-0,021376 
-0,004933 
0,013648 
0,041437 
0,073666 
0,088629 
0,079421 
0,049659 
0,024172 
0,015786 
0,003289 
0,002631 
0,010524 
0,009537 
0,010195 
0,011017 
0,008222 
0,002960 
0,015292 
0,027131 
0,063635 
0,023843 
0,007399 
-0,002631 
-0,061169 
-0,004933 
1,302470 
0,090602 
-0,087643 
-0,017759 
-0,021870 
-0,010853 
-0,003946 
0,007235 
0,020883 
0,051632 
0,090273 
0,108361 
0,101784 
0,070213 
0,044726 
0,030091 
0,020225 
0,016443 
0,010359 
0,010524 
0,007728 
0,003124 
0,002466 
-0,002466 
0,008879 
0,019896 
0,059689 
0,018416 
-0,005426 
-0,006577 
-0,049330 
-0,101784 
1,184407 
0,097344 
-0,120036 
-0,049001 
-0,036504 
-0,030913 
-0,024665 
-0,016443 
-0,004604 
0,030913 
0,064951 
0,078105 
0,068568 
0,033544 
0,015128 
-0,001973 
-0,001315 
-0,002302 
0,003124 
0,007728 
0,007071 
0,007564 
0,007235 
0,002631 
0,011510 
0,031900 
0,057716 
0,009208 
-0,009537 
-0,007399 
-0,172654 
0,272958 
1,091996 
-0,073666 
-0,104086 
-0,050974 
-0,046206 
-0,036011 
-0,026803 
-0,008550 
0,016608 
0,044068 
0,074652 
0,083367 
0,061498 
0,028118 
0,004111 
-0,006906 
-0,011839 
-0,010359 
-0,012661 
-0,011839 
-0,010853 
-0,011181 
-0,012004 
-0,008879 
0,002960 
0,038477 
0,048836 
-0,000493 
-0,017430 
-0,016937 
-0,226917 
0,570416 
0,838277 
-0,100304 
-0,091096 
-0,046534 
-0,042095 
-0,028447 
-0,015786 
0,002302 
0,025651 
0,062155 
0,088794 
0,085505 
0,064622 
0,034531 
0,010853 
0,003124 
0,008057 
0,007564 
0,010359 
0,010359 
0,009373 
0,002631 
0,005262 
0,007071 
0,010524 
0,063964 
0,051961 
0,010195 
-0,001644 
-0,005426 
-0,222971 
0,695056 
0,760665 
-0,105072 
-0,072515 
-0,041273 
-0,037326 
-0,022363 
-0,014141 
0,008222 
0,032064 
0,061333 
0,091589 
0,089451 
0,065444 
0,034695 
0,015621 
0,006742 
0,009866 
0,010030 
0,010524 
0,015292 
0,016443 
0,015621 
0,009208 
0,010195 
0,025158 
0,042752 
0,069391 
0,021705 
0,002466 
0,006248 
-0,146838 
0,269998 
1,233737 
-0,055907 
-0,079585 
-0,031571 
-0,022692 
-0,021870 
-0,016443 
-0,002302 
0,014799 
0,044890 
0,074488 
0,083861 
0,069884 
0,044561 
0,025980 
0,017101 
0,015128 
0,009866 
0,014141 
0,010524 
0,009866 
0,010853 
0,010030 
0,010688 
0,020225 
0,056400 
0,067088 
0,016937 
0,002302 
0,002466 
-0,199128 
0,606920 
0,906845 
-0,080408 
-0,064622 
-0,036340 
-0,023678 
-0,016114 
-0,007399 
-0,000822 
0,020883 
0,059525 
0,080736 
0,084683 
0,074159 
0,039135 
0,017101 
0,008222 
0,006906 
0,014963 
0,015457 
0,011017 
0,011017 
0,008222 
0,010359 
0,007071 
0,019732 
0,046206 
0,054756 
0,010195 
-0,001644 
-0,001973 
-0,204554 
0,544107 
0,843868 
-0,097015 
-0,081230 
-0,036668 
-0,031407 
-0,020718 
-0,011839 
0,002466 
0,025980 
0,058374 
0,087643 
0,093562 
0,073995 
0,039464 
0,020883 
0,010524 
0,009537 
0,009208 
0,009537 
0,015128 
0,009866 
0,007728 
0,007399 
0,002960 
0,011017 
0,010688 
0,051303 
0,054592 
0,005755 
0,001480 
-0,004933 
-0,221819 
0,747675 
0,630434 
-0,107703 
-0,062978 
-0,036340 
-0,031078 
-0,022034 
-0,016114 
0,007728 
0,030420 
0,063800 
0,086985 
0,084025 
0,061662 
0,030584 
0,012004 
0,007564 
-0,001644 
-0,002795 
0,008386 
0,007728 
0,007399 
0,001973 
0,001973 
0,003124 
0,002960 
0,015292 
0,058209 
0,062155 
0,014470 
-0,000493 
0,000658 
-0,219353 
0,596068 
0,798649 
-0,094878 
-0,071693 
-0,037326 
-0,025651 
-0,020225 
-0,008057 
0,010030 
0,043246 
0,076461 
0,099153 
0,098824 
0,077119 
0,041601 
0,020225 
0,006084 
0,007564 
0,002302 
0,009208 
0,010195 
0,007893 
0,007564 
-0,001644 
-0,001973 
-0,000329 
0,007893 
0,041766 
0,046206 
0,003782 
-0,006906 
-0,012661 
-0,225930 
0,678284 
0,788947 
-0,107046 
-0,078599 
-0,042424 
-0,042259 
-0,026638 
-0,011839 
0,002466 
0,024500 
0,052618 
0,079421 
0,079750 
0,061004 
0,027954 
0,009866 
0,002960 
-0,002631 
0,002960 
0,007893 
0,010359 
0,008222 
0,006742 
-0,001480 
0,002138 
0,010853 
0,012826 
0,065115 
0,027131 
0,002960 
0,002302 
-0,075803 
0,007235 
1,309212 
0,071528 
-0,091589 
-0,036011 
-0,031735 
-0,021212 
-0,006577 
0,002466 
0,018910 
0,041437 
0,078599 
0,088794 
0,079914 
0,055578 
0,031078 
0,019074 
0,008386 
0,007564 
0,015457 
0,014470 
0,014141 
0,020883 
0,010030 
0,007071 
0,015457 
0,020390 
0,067088 
0,052618 
0,010688 
0,007564 
0,002960 
-0,203732 
0,761816 
0,740604 
-0,089616 
-0,052947 
-0,026967 
-0,016443 
-0,006906 
0,003289 
0,020718 
0,039793 
0,072186 
0,094055 
0,098166 
0,073995 
0,040122 
0,019732 
0,007893 
0,007728 
0,010688 
0,008550 
0,008222 
0,006742 
0,006742 
0,002302 
0,007728 
0,016608 
0,056071 
0,045055 
0,007564 
-0,001973 
-0,011510 
-0,193866 
0,907010 
0,472579 
-0,103099 
-0,045055 
-0,029927 
-0,013483 
-0,008386 
0,007564 
0,023349 
0,056400 
0,089287 
0,105401 
0,104086 
0,077448 
0,044068 
0,025323 
0,015786 
0,014470 
0,010524 
0,007728 
0,007399 
0,004275 
0,001973 
-0,003453 
0,009702 
0,014963 
0,064622 
0,031735 
-0,001644 
-0,006577 
-0,050974 
-0,101455 
1,122745 
0,171996 
-0,108854 
-0,039135 
-0,031900 
-0,026474 
-0,014963 
-0,001973 
0,020883 
0,048508 
0,078928 
0,098495 
0,083696 
0,055249 
0,029927 
0,010853 
0,007399 
0,002960 
0,007728 
0,009866 
0,002960 
0,002960 
-0,006577 
-0,007235 
0,003782 
0,007728 
0,057387 
0,020390 
-0,006906 
-0,007399 
-0,052454 
-0,095206 
1,138531 
0,237769 
-0,117240 
-0,048179 
-0,041273 
-0,030256 
-0,022034 
-0,007399 
0,015128 
0,040450 
0,079256 
0,092904 
0,085176 
0,054920 
0,025816 
0,006413 
0,002466 
0,002302 
0,002466 
0,002960 
0,002466 
0,008715 
0,002960 
0,007893 
0,010853 
0,019896 
0,062813 
0,031407 
0,003782 
-0,001973 
-0,027460 
-0,154567 
1,123074 
0,294334 
-0,104908 
-0,041766 
-0,033544 
-0,027131 
-0,017923 
-0,001644 
0,014470 
0,039299 
0,068075 
0,083861 
0,082216 
0,050152 
0,028282 
0,011675 
0,003453 
0,002631 
0,003124 
0,002302 
0,002960 
0,007399 
0,002631 
0,003124 
0,010853 
0,016114 
0,063142 
0,036833 
-0,001644 
-0,002795 
-0,033873 
-0,148647 
1,157769 
0,304365 
-0,119214 
-0,049823 
-0,046206 
-0,041437 
-0,031407 
-0,012661 
0,007071 
0,025323 
0,054427 
0,081230 
0,072186 
0,048672 
0,024994 
0,013977 
0,007728 
0,007235 
0,007728 
0,010688 
0,020554 
0,011181 
0,009702 
0,011181 
0,020390 
0,028940 
0,072350 
0,032393 
0,003618 
0,002960 
-0,077283 
0,028118 
1,203975 
0,059031 
-0,081887 
-0,021870 
-0,022034 
-0,011510 
0,002466 
0,011181 
0,030913 
0,064786 
0,088465 
0,103592 
0,088629 
0,060511 
0,039957 
0,020225 
0,014963 
0,010524 
0,010359 
0,007071 
0,007071 
0,001973 
-0,006248 
0,007564 
0,008386 
0,057387 
0,039299 
0,002466 
-0,009208 
-0,017430 
-0,215900 
0,842223 
0,532433 
-0,109348 
-0,057058 
-0,031407 
-0,030584 
-0,021541 
-0,002302 
0,013648 
0,035024 
0,068239 
0,088300 
0,084354 
0,056071 
0,031900 
0,010853 
0,002960 
0,003124 
0,010195 
0,002466 
-0,001644 
0,008222 
-0,001315 
-0,007399 
0,002466 
0,009537 
0,046534 
0,047357 
-0,007235 
-0,011181 
-0,011839 
-0,225273 
0,655592 
0,629777 
-0,110828 
-0,072679 
-0,041437 
-0,036997 
-0,021212 
-0,012661 
0,010030 
0,036011 
0,073008 
0,093398 
0,088958 
0,064458 
0,030749 
0,012990 
0,003124 
0,010688 
0,002466 
-0,002302 
0,002302 
0,003618 
-0,004933 
0,002138 
-0,002795 
-0,000329 
0,011017 
0,050481 
0,056729 
0,005755 
0,003289 
-0,017594 
-0,207514 
0,622213 
0,813941 
-0,097673 
-0,085669 
-0,041930 
-0,035353 
-0,032229 
-0,010030 
0,009208 
0,024994 
0,058209 
0,075475 
0,078928 
0,048179 
0,021212 
0,002960 
-0,006906 
-0,011839 
-0,005097 
-0,012332 
-0,007399 
-0,006906 
-0,011510 
-0,012332 
-0,016608 
-0,012004 
0,002631 
0,011675 
0,050481 
0,054592 
0,005262 
-0,001644 
-0,002302 
-0,220340 
0,696207 
0,785823 
-0,097837 
-0,072186 
-0,046534 
-0,045383 
-0,021870 
-0,016443 
0,013319 
0,024994 
0,052125 
0,068239 
0,076132 
0,059689 
0,026474 
0,017759 
0,007893 
0,007564 
0,001809 
0,011346 
0,015457 
0,015128 
0,011181 
-0,001644 
0,004933 
0,008222 
0,010030 
0,032393 
0,048343 
0,013155 
0,004111 
0,000164 
-0,129902 
0,299596 
1,212197 
-0,046041 
-0,079256 
-0,031571 
-0,031735 
-0,016937 
-0,007235 
0,004440 
0,025651 
0,048014 
0,097673 
0,092904 
0,088300 
0,059196 
0,035024 
0,025816 
0,015786 
0,021376 
0,010524 
0,015292 
0,024994 
0,023349 
0,014963 
0,009866 
0,025323 
0,027296 
0,070706 
0,049165 
0,011675 
0,003453 
-0,013483 
-0,186466 
0,961766 
0,422263 
-0,113623 
-0,052290 
-0,039299 
-0,027131 
-0,027131 
-0,017594 
0,003453 
0,025323 
0,072515 
0,079914 
0,078105 
0,053934 
0,025158 
0,010195 
0,004604 
0,007564 
0,003289 
0,006742 
0,008386 
0,015786 
0,010030 
0,002960 
0,010524 
0,010030 
0,033544 
0,034366 
-0,009702 
-0,016608 
-0,025980 
-0,223135 
0,580282 
0,809008 
-0,108197 
-0,085834 
-0,050974 
-0,059360 
-0,034366 
-0,001644 
0,007728 
0,035189 
0,068075 
0,095371 
0,094384 
0,072350 
0,015128 
0,004111 
-0,020718 
-0,012332 
-0,001973 
0,007728 
0,012661 
0,002302 
0,007071 
0,000987 
-0,007728 
0,007728 
0,023678 
0,073995 
0,025323 
0,007564 
0,007728 
-0,131382 
0,137794 
1,167800 
-0,017430 
-0,091753 
-0,036011 
-0,032229 
-0,017265 
-0,006248 
0,011346 
0,030256 
0,060018 
0,092411 
0,085176 
0,080408 
0,050316 
0,024829 
0,013977 
0,007728 
0,010359 
0,009044 
0,007728 
0,008222 
-0,002631 
-0,001973 
0,003289 
0,002466 
0,004111 
0,014306 
0,019732 
0,038806 
0,089287 
0,043903 
0,004275 
0,015457 
-0,036833 
-0,085340 
1,172733 
0,197155 
-0,100797 
-0,036504 
-0,031078 
-0,023678 
-0,011181 
0,003618 
0,027625 
0,063800 
0,093727 
0,088629 
0,090602 
0,072515 
0,035024 
0,024994 
-0,000822 
0,009537 
0,010030 
0,010030 
0,015621 
0,018910 
0,016443 
0,007235 
0,010688 
0,007728 
-0,005097 
0,013155 
0,010195 
0,025158 
0,058538 
0,053441 
0,005591 
0,002466 
0,006413 
-0,186795 
0,586860 
0,990048 
-0,079256 
-0,066266 
-0,030256 
-0,025816 
-0,031571 
-0,017430 
-0,007728 
0,018088 
0,049165 
0,079256 
0,084518 
0,074981 
0,037655 
0,020061 
0,007728 
0,006906 
0,000658 
0,011181 
0,022034 
0,022856 
0,020883 
0,010195 
0,008386 
0,003289 
0,002960 
0,016608 
0,038477 
0,079256 
0,044561 
0,012332 
0,007399 
-0,107374 
0,079421 
1,287507 
0,013648 
-0,083532 
-0,016937 
-0,021376 
-0,014306 
-0,014634 
0,002960 
0,018416 
0,054592 
0,084025 
0,098495 
0,087971 
0,051467 
0,024829 
0,016279 
0,010195 
0,009044 
0,020390 
0,015128 
0,014634 
0,011017 
0,010030 
0,008057 
0,011017 
0,020554 
0,040944 
0,063307 
0,012826 
0,002466 
-0,016937 
-0,176436 
0,381812 
0,980018 
-0,072350 
-0,081065 
-0,027296 
-0,029927 
-0,011510 
-0,007235 
0,008879 
0,029269 
0,066266 
0,098166 
0,108854 
0,087643 
0,051303 
0,024007 
0,004604 
0,009866 
0,011017 
0,008222 
0,015786 
0,013319 
0,002466 
0,001809 
0,006577 
0,023185 
0,016937 
0,070542 
0,042588 
0,005755 
0,000987 
-0,049659 
-0,073995 
1,150534 
0,150785 
-0,108854 
-0,044232 
-0,035353 
-0,031078 
-0,016608 
-0,003782 
0,012168 
0,055414 
0,085998 
0,103921 
0,079256 
0,060018 
0,021541 
-0,001973 
-0,004275 
-0,007235 
-0,007728 
0,002466 
0,006413 
0,007071 
0,003124 
-0,007235 
0,015292 
0,015292 
0,059689 
0,027954 
-0,007728 
-0,007399 
-0,047685 
-0,143385 
1,121759 
0,211789 
-0,102113 
-0,035024 
-0,031571 
-0,026474 
-0,021870 
0,012332 
0,019403 
0,052290 
0,086492 
0,108361 
0,088465 
0,050645 
0,027625 
0,006577 
0,000329 
-0,001644 
0,008550 
0,007728 
0,007564 
0,007564 
0,001809 
0,009044 
0,015457 
0,028118 
0,064786 
0,016279 
-0,017759 
-0,007235 
-0,120200 
0,151442 
1,254291 
-0,028940 
-0,104086 
-0,041273 
-0,040615 
-0,030749 
-0,015786 
-0,001973 
0,028611 
0,046699 
0,083367 
0,084354 
0,074324 
0,040615 
0,011181 
0,002138 
-0,011839 
0,006577 
0,002960 
-0,002631 
0,010359 
0,007728 
0,007893 
0,002960 
0,007728 
0,037655 
0,064293 
0,024500 
-0,007399 
-0,011839 
-0,098660 
0,068075 
1,340290 
0,051467 
-0,097508 
-0,045383 
-0,036668 
-0,036833 
-0,022034 
0,002631 
0,008222 
0,043081 
0,069555 
0,095371 
0,080901 
0,048343 
0,023843 
0,010359 
0,002302 
0,008386 
0,011017 
0,010688 
0,010359 
0,020554 
0,014963 
0,006906 
0,007728 
0,040286 
0,057223 
0,067746 
0,024994 
0,010195 
0,009702 
-0,179067 
0,469290 
1,023592 
-0,068404 
-0,065773 
-0,021047 
-0,017923 
-0,008057 
0,001480 
0,010359 
0,040122 
0,066266 
0,095206 
0,104086 
0,077777 
0,057058 
0,028611 
0,015621 
0,010359 
0,010030 
0,015128 
0,015457 
0,011181 
0,010524 
0,007893 
0,002960 
0,007399 
0,015292 
0,042588 
0,062320 
0,015457 
0,002466 
0,002960 
-0,183671 
0,398913 
1,052368 
-0,073172 
-0,081394 
-0,031735 
-0,021870 
-0,016937 
-0,002795 
0,011181 
0,037162 
0,072844 
0,103757 
0,108361 
0,086985 
0,059360 
0,035189 
0,019732 
0,008550 
0,020718 
0,020061 
0,020061 
0,015621 
0,010524 
0,010359 
0,002631 
0,002960 
0,008715 
0,015457 
0,065773 
0,036340 
-0,000493 
-0,010688 
-0,021870 
-0,197319 
0,979689 
0,376715 
-0,103921 
-0,049330 
-0,036340 
-0,025980 
-0,007235 
0,002466 
0,020554 
0,050316 
0,089122 
0,109019 
0,102113 
0,072021 
0,049330 
0,020061 
0,009044 
0,010524 
0,010195 
0,007728 
0,008550 
0,007893 
0,008057 
-0,000493 
-0,000822 
-0,002795 
0,007235 
0,022034 
0,060182 
0,063142 
0,015292 
0,002960 
-0,007728 
-0,219353 
0,683053 
0,720214 
-0,096193 
-0,076790 
-0,040944 
-0,032064 
-0,031571 
-0,007728 
-0,010030 
0,020390 
0,048508 
0,059689 
0,051796 
0,028940 
-0,007399 
-0,036011 
-0,050316 
-0,050974 
-0,045055 
-0,061827 
-0,054263 
-0,060347 
-0,060676 
-0,037655 
-0,053112 
-0,033215 
-0,080079 
-0,021870 
-0,013812 
-0,046534 
0,013977 
-0,034695 
0,000329 
-0,007728 
-0,005426 
0,076461 
0,010195 
0,007235 
-0,023021 
-0,196168 
-0,113294 
1,137873 
0,070870 
-0,105730 
-0,032722 
-0,046699 
-0,028118 
-0,017923 
0,022856 
0,020390 
0,050152 
0,081559 
0,093562 
0,090438 
0,069062 
0,049330 
0,020554 
0,033544 
0,024994 
0,025651 
0,020390 
0,010524 
0,010359 
0,008550 
0,007071 
0,008222 
-0,001973 
0,013977 
-0,008879 
0,010688 
0,012004 
0,030256 
-0,007728 
-0,057387 
-0,034038 
-0,169037 
0,038477 
1,071771 
-0,070542 
-0,147496 
-0,226424 
-0,091096 
-0,041766 
-0,047192 
0,003453 
0,030584 
0,055578 
0,088136 
0,103592 
0,096686 
0,089451 
0,075968 
0,084354 
0,084025 
0,089122 
0,075146 
0,051961 
0,019732 
-0,003946 
-0,016608 
-0,016608 
-0,002795 
0,014141 
0,037326 
0,103099 
0,074652 
0,046863 
0,044397 
-0,007235 
-0,070213 
1,219760 
0,148811 
-0,083861 
-0,019567 
-0,021212 
-0,007728 
-0,005426 
0,023678 
0,030091 
0,064129 
0,075639 
0,068239 
0,061169 
0,015621 
-0,009702 
-0,013812 
-0,061004 
-0,038806 
-0,063307 
-0,020225 
-0,063800 
-0,012990 
-0,047850 
-0,047028 
-0,024007 
-0,021212 
0,008550 
0,032229 
0,014799 
-0,016443 
-0,030749 
-0,097837 
0,031078 
1,112550 
-0,110005 
-0,176765 
-0,070706 
-0,049823 
-0,044726 
-0,041437 
0,016772 
0,007399 
0,039957 
0,079750 
0,088794 
0,083861 
0,063800 
0,039464 
0,039628 
0,065280 
0,054263 
0,034860 
0,015786 
-0,001315 
-0,006084 
-0,007728 
0,010524 
0,027131 
0,086656 
0,069555 
0,030420 
0,030256 
-0,008057 
-0,086820 
1,182434 
0,181205 
-0,070542 
-0,007399 
-0,001973 
0,002302 
0,015457 
0,028282 
0,042588 
0,062649 
0,092904 
0,098660 
0,077119 
0,043903 
0,002960 
-0,008057 
-0,034038 
-0,046041 
-0,026309 
-0,059360 
-0,069062 
-0,074324 
-0,057223 
-0,077777 
-0,056729 
0,007728 
-0,082052 
-0,042095 
-0,073830 
-0,102770 
-0,178080 
0,935950 
-0,051467 
-0,179396 
-0,090109 
-0,086656 
-0,056565 
-0,056400 
0,057223 
0,026803 
0,052618 
0,069062 
0,100962 
0,096851 
0,079914 
0,044068 
0,043903 
0,034860 
0,023514 
-0,002795 
-0,034038 
-0,045712 
-0,046206 
-0,021047 
0,008057 
0,050316 
0,020718 
0,010524 
0,012168 
-0,085012 
0,005262 
1,207592 
0,057058 
-0,071693 
-0,025816 
-0,050152 
-0,038313 
-0,039464 
-0,032558 
-0,016114 
-0,004275 
0,049330 
0,024994 
0,000000 
-0,030913 
-0,034202 
-0,065773 
-0,154402 
-0,126777 
-0,018581 
-0,073501 
-0,098331 
-0,007399 
-0,017759 
0,057716 
0,092247 
0,036011 
-0,002302 
0,010524 
-0,019896 
-0,041601 
1,114853 
0,167392 
-0,026309 
0,035682 
0,010688 
-0,008057 
-0,013483 
0,006742 
0,032229 
0,076461 
0,123982 
0,143056 
0,112636 
0,103428 
0,093398 
0,088794 
0,089122 
0,093727 
0,079092 
0,054263 
0,039793 
0,026145 
0,030256 
0,046699 
0,034860 
-0,029105 
-0,065280 
-0,115925 
-0,295485 
0,290059 
0,771189 
-0,209651 
-0,229383 
-0,163281 
-0,167721 
-0,175943 
-0,150456 
-0,179067 
-0,096357 
0,025980 
-0,055578 
0,047521 
0,031900 
0,010195 
-0,031078 
-0,042259 
-0,059525 
-0,038806 
-0,035517 
-0,046863 
-0,022527 
-0,041437 
0,003782 
0,014470 
-0,033051 
-0,051632 
-0,058702 
-0,179725 
0,052290 
1,021290 
-0,083203 
-0,143878 
-0,050152 
-0,093562 
-0,048179 
-0,104086 
-0,050152 
-0,040615 
0,017101 
0,075639 
0,077119 
0,122667 
0,068733 
0,036175 
0,018416 
0,011181 
0,027131 
0,054427 
0,074159 
0,049494 
0,096357 
0,109348 
0,093891 
0,035517 
0,002302 
-0,006577 
-0,155882 
0,244840 
1,077362 
-0,023021 
-0,023514 
0,030913 
0,045219 
0,049494 
0,064458 
0,085834 
0,108361 
0,129902 
0,142399 
0,132861 
0,101619 
0,069391 
0,044726 
0,036175 
0,021047 
0,011181 
-0,000329 
-0,019567 
-0,017923 
-0,002631 
0,037326 
0,027460 
0,006906 
-0,063964 
-0,040779 
-0,214091 
0,227739 
1,002710 
-0,134835 
-0,141741 
-0,110005 
-0,098002 
-0,107703 
-0,060511 
-0,055578 
-0,015786 
0,008715 
0,033051 
0,007728 
0,036175 
-0,010030 
-0,026967 
-0,040779 
-0,031571 
-0,028611 
-0,026474 
-0,107374 
-0,190413 
-0,131875 
-0,020718 
0,001809 
-0,051632 
-0,034531 
-0,040122 
-0,211625 
0,215571 
0,975743 
-0,082216 
-0,078763 
0,011181 
0,045548 
0,074324 
0,091753 
0,106881 
0,102935 
0,098331 
0,075475 
0,069226 
0,060018 
0,040779 
0,035024 
0,040286 
0,040615 
0,031407 
0,024336 
0,020061 
0,017594 
0,028611 
0,061169 
-0,000164 
-0,027131 
-0,031242 
-0,117569 
-0,167886 
1,158592 
0,007893 
-0,127435 
-0,070542 
-0,060347 
-0,049659 
-0,036504 
-0,021376 
0,003124 
0,032393 
0,039793 
0,036504 
0,019567 
0,003782 
-0,012990 
-0,026967 
-0,012661 
-0,005755 
-0,014141 
-0,010359 
-0,001644 
0,008057 
0,035517 
0,041601 
-0,009702 
-0,032064 
-0,041273 
-0,201265 
0,231850 
1,045298 
-0,108032 
-0,151442 
-0,094384 
-0,094713 
-0,089122 
-0,086327 
-0,062813 
-0,037491 
-0,017265 
0,005262 
-0,001151 
-0,014963 
-0,022692 
-0,037162 
-0,031900 
-0,012332 
-0,009208 
-0,008879 
0,010688 
0,016279 
0,030256 
0,086985 
0,056236 
0,018088 
0,017923 
-0,005097 
-0,105237 
1,134749 
0,156375 
-0,079914 
-0,009702 
-0,007399 
0,002302 
0,007235 
0,025816 
0,045219 
0,078928 
0,093233 
0,101290 
0,090602 
0,058702 
0,046370 
0,035189 
0,034860 
0,035024 
0,030256 
0,025323 
0,021541 
0,025651 
0,084518 
0,037819 
-0,001973 
-0,011181 
-0,014963 
-0,235796 
0,851596 
0,434102 
-0,110992 
-0,055414 
-0,037162 
-0,027625 
-0,011839 
-0,003124 
0,019567 
0,041766 
0,069719 
0,069884 
0,050316 
0,023678 
0,011181 
0,000164 
-0,003124 
0,004275 
0,003124 
0,003124 
0,010524 
0,014306 
0,046534 
0,047357 
0,007399 
-0,010688 
-0,014963 
-0,224944 
0,488200 
0,804075 
-0,105895 
-0,085176 
-0,046206 
-0,033380 
-0,021212 
-0,006084 
0,014470 
0,036833 
0,066102 
0,068404 
0,054427 
0,025487 
0,005920 
-0,005920 
-0,010030 
-0,006906 
-0,006906 
-0,005426 
0,000000 
0,008057 
0,056894 
0,040450 
0,003618 
0,002960 
0,001973 
-0,215078 
0,717090 
0,645398 
-0,081230 
-0,045877 
-0,012661 
-0,002302 
0,007564 
0,024007 
0,041930 
0,069555 
0,094220 
0,104579 
0,082216 
0,054427 
0,026638 
0,014306 
-0,003618 
0,005755 
0,003124 
0,002302 
0,007893 
0,014470 
0,068239 
0,040779 
0,002302 
-0,007399 
-0,020061 
-0,217709 
0,899939 
0,382141 
-0,122338 
-0,070048 
-0,046534 
-0,036997 
-0,026803 
-0,012332 
0,012990 
0,041108 
0,059196 
0,054756 
0,031078 
0,005591 
-0,003946 
-0,012661 
-0,011510 
-0,001644 
-0,002302 
0,005262 
0,009702 
0,020225 
0,069391 
0,027131 
0,002138 
-0,008057 
-0,049001 
-0,113458 
1,207264 
0,138452 
-0,112307 
-0,041437 
-0,036340 
-0,029269 
-0,016443 
-0,005097 
0,010195 
0,035024 
0,050316 
0,054756 
0,035024 
0,015292 
0,008879 
-0,001315 
-0,001973 
-0,001973 
0,005755 
0,011839 
0,015786 
0,023514 
0,063964 
0,042095 
0,003124 
0,001151 
-0,005097 
-0,191399 
1,039214 
0,397433 
-0,102441 
-0,030420 
-0,019732 
-0,010359 
-0,006906 
-0,001315 
0,009702 
0,030584 
0,050316 
0,054427 
0,045219 
0,015128 
0,003782 
-0,007235 
-0,021541 
-0,017430 
-0,016937 
-0,017265 
-0,012004 
-0,002466 
0,013648 
0,053769 
0,008057 
-0,015786 
-0,016279 
-0,111979 
0,076132 
1,183256 
0,001151 
-0,097673 
-0,035682 
-0,021870 
-0,012332 
-0,003946 
0,008057 
0,028776 
0,053605 
0,069062 
0,063964 
0,045055 
0,022692 
0,011017 
0,007893 
0,010359 
0,010359 
0,005591 
0,014634 
0,014306 
0,010030 
0,015457 
0,036997 
0,063471 
0,007399 
-0,012004 
-0,012004 
-0,203403 
0,466495 
0,947131 
-0,087478 
-0,078763 
-0,039957 
-0,036340 
-0,029762 
-0,016937 
0,001809 
0,023021 
0,048343 
0,055414 
0,049165 
0,021870 
0,003618 
0,002960 
-0,002302 
-0,007728 
-0,001973 
0,008222 
0,009373 
0,011017 
0,003124 
0,002302 
0,008879 
0,046370 
0,054098 
0,004440 
-0,006906 
-0,015292 
-0,228890 
0,758692 
0,553973 
-0,110334 
-0,067582 
-0,046206 
-0,040122 
-0,029433 
-0,016937 
0,001973 
0,025323 
0,053605 
0,054920 
0,045055 
0,018416 
0,001809 
-0,002795 
-0,011839 
-0,011839 
-0,011181 
-0,006577 
0,002466 
0,000987 
-0,002466 
-0,003618 
0,006248 
0,010359 
0,048836 
0,065609 
0,015786 
-0,001973 
-0,001973 
-0,218202 
0,510234 
0,830878 
-0,092904 
-0,090767 
-0,040944 
-0,035353 
-0,025487 
-0,008879 
0,010195 
0,035024 
0,059031 
0,073008 
0,061169 
0,037162 
0,011839 
0,004111 
-0,000164 
0,000658 
0,001973 
0,007728 
0,010195 
0,011017 
0,008057 
0,004275 
0,002466 
0,003453 
0,014141 
0,036833 
0,068733 
0,027625 
0,002960 
0,009208 
-0,185315 
0,418152 
1,026717 
-0,077448 
-0,079092 
-0,033544 
-0,028118 
-0,025651 
-0,012004 
0,001809 
0,027460 
0,052947 
0,064622 
0,064622 
0,046534 
0,023349 
0,010030 
0,002302 
0,002960 
0,005755 
0,009866 
0,020225 
0,024007 
0,025323 
0,023021 
0,020225 
0,015457 
0,030256 
0,044232 
0,074488 
0,035846 
0,010195 
0,002302 
-0,162295 
0,360601 
1,175364 
-0,053769 
-0,070706 
-0,021212 
-0,017430 
-0,009537 
-0,007235 
0,006577 
0,017430 
0,040944 
0,064951 
0,064951 
0,049165 
0,025487 
0,012661 
0,007399 
0,008057 
0,007235 
0,014141 
0,021376 
0,030584 
0,030091 
0,023349 
0,020554 
0,017594 
0,029927 
0,036340 
0,078599 
0,041930 
0,011510 
0,002631 
-0,126449 
0,137794 
1,169773 
-0,026638 
-0,105895 
-0,039464 
-0,036340 
-0,025980 
-0,014963 
-0,007399 
0,010359 
0,038148 
0,062484 
0,065115 
0,048508 
0,026309 
0,011017 
0,003453 
0,001973 
0,007564 
0,009866 
0,015621 
0,015292 
0,012497 
0,006906 
0,002631 
0,007728 
0,015292 
0,055907 
0,053769 
0,014963 
0,002631 
-0,006906 
-0,193044 
0,914738 
0,421934 
-0,101126 
-0,045219 
-0,025980 
-0,016937 
-0,008550 
0,004604 
0,024172 
0,046206 
0,078270 
0,088629 
0,083203 
0,045219 
0,024007 
0,015457 
0,007893 
0,007564 
0,008879 
0,009208 
0,009702 
0,007728 
0,007728 
0,007893 
0,003289 
0,018910 
0,063800 
0,041437 
0,003618 
-0,007399 
-0,037162 
-0,153744 
1,050724 
0,220833 
-0,110170 
-0,043575 
-0,033873 
-0,025816 
-0,016114 
0,002138 
0,018088 
0,041766 
0,068897 
0,073995 
0,059689 
0,027296 
0,010524 
-0,001644 
-0,003124 
-0,001151 
0,002631 
0,002631 
0,007235 
0,007728 
0,004111 
0,008879 
0,015457 
0,049001 
0,058702 
0,011017 
-0,002631 
-0,007728 
-0,226095 
0,618102 
0,721365 
-0,100304 
-0,079421 
-0,041437 
-0,039957 
-0,030749 
-0,020390 
-0,002466 
0,025158 
0,053769 
0,060347 
0,052454 
0,015292 
-0,001480 
-0,011839 
-0,016937 
-0,012004 
-0,006577 
-0,007235 
-0,001644 
0,004111 
0,006084 
0,007564 
0,013648 
0,021047 
0,073501 
0,050810 
0,010195 
0,003618 
-0,018416 
-0,163117 
1,081966 
0,301569 
-0,105237 
-0,043903 
-0,030256 
-0,024994 
-0,011839 
-0,004275 
0,010030 
0,028118 
0,056565 
0,064293 
0,049823 
0,024336 
0,010030 
0,002466 
0,002960 
0,006742 
0,008879 
0,012497 
0,010359 
0,009866 
0,007564 
0,007564 
0,011675 
0,032064 
0,069391 
0,022692 
0,001973 
0,002960 
-0,153744 
0,271971 
1,183256 
-0,065280 
-0,095864 
-0,042917 
-0,037655 
-0,036668 
-0,023021 
-0,014634 
0,006742 
0,030913 
0,056729 
0,056236 
0,035353 
0,010030 
0,001809 
-0,002795 
-0,001973 
0,004111 
0,002631 
0,009702 
0,007728 
0,008715 
0,008222 
0,009866 
0,020061 
0,071199 
0,033873 
0,001809 
0,002960 
-0,049494 
-0,063471 
1,154152 
0,094384 
-0,112636 
-0,042752 
-0,036504 
-0,025487 
-0,017265 
-0,004275 
0,011017 
0,039299 
0,065773 
0,071199 
0,055085 
0,029433 
0,018581 
0,008057 
0,007728 
0,008879 
0,010688 
0,010195 
0,016772 
0,010030 
0,012990 
0,020390 
0,029598 
0,084518 
0,036997 
0,010030 
0,006906 
-0,131710 
0,194359 
1,117483 
-0,030749 
-0,091096 
-0,021376 
-0,016114 
-0,010688 
0,009044 
0,020554 
0,042095 
0,070213 
0,093727 
0,088794 
0,064293 
0,040286 
0,025487 
0,013648 
0,015621 
0,016608 
0,011675 
0,014470 
0,016279 
0,015457 
0,010359 
0,015292 
0,045548 
0,065773 
0,010688 
-0,007728 
-0,002302 
-0,195181 
0,462055 
0,900433 
-0,076954 
-0,081723 
-0,032064 
-0,020883 
-0,011510 
0,003782 
0,021212 
0,042259 
0,072844 
0,089451 
0,084025 
0,054920 
0,027460 
0,017594 
0,008222 
0,007235 
0,010359 
0,010853 
0,012332 
0,010524 
0,007399 
0,008386 
0,014470 
0,057387 
0,055578 
0,009702 
0,002466 
-0,000493 
-0,208500 
0,838441 
0,551013 
-0,091260 
-0,052783 
-0,036175 
-0,017759 
-0,017265 
-0,009702 
0,010030 
0,031078 
0,059031 
0,060347 
0,043246 
0,011017 
-0,004275 
-0,021376 
-0,031078 
-0,019239 
-0,012661 
-0,005755 
0,000658 
0,005262 
0,007235 
0,010359 
0,019403 
0,066760 
0,051139 
0,010688 
0,007564 
-0,001151 
-0,195346 
0,861791 
0,493133 
-0,102113 
-0,036997 
-0,025980 
-0,017923 
-0,011839 
0,002138 
0,009866 
0,029105 
0,058045 
0,069391 
0,054427 
0,027460 
0,010524 
0,004440 
0,002138 
0,007235 
0,012168 
0,015128 
0,015292 
0,015457 
0,020718 
0,014634 
0,033873 
0,076461 
0,030091 
0,002466 
0,002302 
-0,092411 
0,081394 
1,292275 
-0,001151 
-0,097837 
-0,031078 
-0,026638 
-0,017265 
-0,007728 
0,002960 
0,018745 
0,046370 
0,074817 
0,079421 
0,077941 
0,042259 
0,020883 
0,006906 
0,002302 
0,011839 
0,011181 
0,010853 
0,015128 
0,015128 
0,016114 
0,020883 
0,047192 
0,060347 
0,009537 
-0,003124 
-0,006577 
-0,214091 
0,559728 
0,819038 
-0,095864 
-0,073995 
-0,036668 
-0,028611 
-0,021212 
-0,006906 
0,007235 
0,026309 
0,049165 
0,063964 
0,053769 
0,034531 
0,011675 
-0,001644 
-0,056565 
-0,024665 
-0,011839 
-0,001973 
0,014799 
0,003453 
-0,006248 
0,003618 
0,004111 
0,067417 
0,039793 
-0,000822 
-0,007399 
-0,021541 
-0,209158 
0,736493 
0,396940 
-0,118720 
-0,067417 
-0,046206 
-0,031900 
-0,018581 
0,005262 
0,026145 
0,050481 
0,078434 
0,087478 
0,074324 
0,045055 
0,016443 
0,008057 
0,003289 
0,002631 
0,002960 
0,006906 
0,007893 
0,011510 
0,008222 
0,007564 
0,019732 
0,038971 
0,069884 
0,012497 
-0,002631 
-0,011839 
-0,204390 
0,418481 
0,915067 
-0,075639 
-0,063142 
-0,007399 
0,002466 
0,007564 
0,015457 
0,025487 
0,081559 
0,147496 
0,116254 
0,078928 
0,049494 
0,024994 
0,014963 
0,010524 
0,017101 
0,016443 
0,007728 
0,009044 
0,010688 
0,009044 
0,008222 
0,009702 
0,025323 
0,064458 
0,011017 
-0,002466 
-0,003782 
-0,168050 
0,231357 
1,095121 
-0,050152 
-0,076132 
-0,020718 
-0,011181 
-0,007399 
0,009866 
0,021870 
0,035846 
0,069062 
0,084518 
0,074817 
0,039464 
0,012990 
0,002960 
0,002960 
-0,000822 
0,007728 
0,003618 
0,003782 
0,007728 
0,002302 
0,007399 
0,015786 
0,029105 
0,067746 
0,024994 
0,002631 
0,001151 
-0,138781 
0,230534 
1,211210 
-0,045383 
-0,083203 
-0,031078 
-0,016608 
-0,008550 
0,002960 
0,010524 
0,028447 
0,063964 
0,079421 
0,078434 
0,057716 
0,030420 
0,020225 
0,007564 
0,007564 
0,011839 
0,015786 
0,018745 
0,020390 
0,025323 
0,013319 
0,019074 
0,047850 
0,052454 
0,009537 
-0,001973 
-0,007728 
-0,226259 
0,736164 
0,750141 
-0,104415 
-0,060511 
-0,041437 
-0,027460 
-0,022198 
-0,016114 
-0,003946 
0,011017 
0,038148 
0,058867 
0,055249 
0,032887 
0,014799 
0,002631 
0,003618 
0,003782 
0,007399 
0,010195 
0,015621 
0,020390 
0,012990 
0,022527 
0,020883 
0,074324 
0,040450 
0,006413 
-0,002795 
-0,020718 
-0,095042 
1,141162 
0,129737 
-0,114116 
-0,034038 
-0,025980 
-0,007399 
-0,002795 
0,009866 
0,025816 
0,052125 
0,084354 
0,089122 
0,072021 
0,046370 
0,030091 
0,015457 
0,012332 
0,013812 
0,020225 
0,020061 
0,019567 
0,020225 
0,015786 
0,019896 
0,061169 
0,047850 
-0,001973 
-0,006577 
-0,013812 
-0,233001 
0,679764 
0,625830 
-0,115760 
-0,079750 
-0,046206 
-0,036011 
-0,030913 
-0,014963 
-0,002466 
0,026474 
0,054427 
0,070048 
0,057716 
0,035024 
0,018416 
0,002466 
0,004933 
0,002960 
0,010688 
0,016937 
0,010853 
-0,002302 
0,002631 
-0,000493 
0,005920 
0,059360 
0,020718 
-0,007728 
-0,011839 
-0,058538 
-0,087807 
1,120772 
0,111979 
-0,114281 
-0,038148 
-0,035846 
-0,024007 
-0,012332 
0,007235 
0,020061 
0,054920 
0,079750 
0,084518 
0,064951 
0,036504 
0,020225 
0,007235 
0,004440 
0,009537 
0,007235 
0,007235 
0,008057 
0,010524 
0,002631 
0,005755 
0,010688 
0,062320 
0,038477 
0,001480 
-0,008057 
-0,023021 
-0,191893 
0,983471 
0,312257 
-0,118885 
-0,065280 
-0,040122 
-0,029433 
-0,021870 
-0,007235 
0,014141 
0,037984 
0,069555 
0,077941 
0,059689 
0,025487 
0,002466 
-0,006248 
-0,011181 
-0,010853 
-0,002631 
-0,002795 
-0,002631 
-0,005426 
-0,006906 
-0,006084 
0,002302 
0,010195 
0,054920 
0,024829 
-0,001644 
-0,008057 
-0,040944 
-0,135328 
1,147246 
0,190248 
-0,120200 
-0,047028 
-0,042095 
-0,036668 
-0,026967 
-0,015292 
0,003124 
0,028940 
0,051632 
0,064786 
0,049494 
0,022692 
0,005262 
0,002466 
0,002960 
0,003289 
0,002631 
0,009537 
0,009373 
0,010195 
0,004440 
0,008550 
0,011181 
0,040286 
0,050481 
0,007564 
0,002960 
-0,005097 
-0,209323 
0,819532 
0,582749 
-0,106223 
-0,059196 
-0,035846 
-0,026145 
-0,021870 
-0,010853 
-0,003453 
0,019567 
0,049659 
0,068733 
0,060182 
0,038806 
0,020718 
0,010359 
0,008057 
0,007728 
0,008715 
0,010524 
0,010030 
0,014799 
0,011017 
0,015457 
0,020390 
0,068075 
0,023021 
-0,001480 
-0,007235 
-0,067253 
-0,010688 
1,196411 
0,046041 
-0,117898 
-0,040615 
-0,036175 
-0,026967 
-0,022363 
-0,010030 
0,009537 
0,034695 
0,072515 
0,073008 
0,050316 
0,026309 
0,010853 
0,001480 
0,007399 
0,007893 
0,010524 
0,011181 
0,010853 
0,009373 
0,011181 
0,015128 
0,073337 
0,028282 
-0,001973 
-0,008057 
-0,040122 
-0,112143 
1,096765 
0,175285 
-0,114445 
-0,047028 
-0,036340 
-0,023514 
-0,016608 
-0,002466 
0,024172 
0,054592 
0,074652 
0,083861 
0,060511 
0,030256 
0,015292 
0,004111 
0,002960 
0,009208 
0,007235 
0,007564 
0,008715 
0,007564 
0,009373 
0,019732 
0,069226 
0,023678 
-0,001151 
-0,007728 
-0,052125 
-0,080736 
1,132776 
0,135821 
-0,117569 
-0,042588 
-0,035846 
-0,021870 
-0,016937 
0,004933 
0,024665 
0,054920 
0,083696 
0,084025 
0,067088 
0,034366 
0,016443 
0,006742 
0,007564 
0,007564 
0,011510 
0,006742 
0,008550 
0,007564 
0,009702 
0,013319 
0,063964 
0,038642 
-0,004604 
-0,006906 
-0,038477 
-0,137137 
1,076540 
0,169037 
-0,122173 
-0,048508 
-0,040779 
-0,031078 
-0,016937 
-0,002466 
0,019732 
0,054756 
0,073830 
0,077448 
0,054098 
0,022198 
0,007564 
-0,012661 
-0,012332 
-0,012004 
-0,006906 
-0,001973 
-0,003782 
-0,003453 
-0,008057 
0,003289 
0,023349 
0,052618 
-0,000493 
-0,015786 
-0,021870 
-0,199786 
0,407628 
1,018002 
-0,098166 
-0,102277 
-0,056565 
-0,047850 
-0,041273 
-0,031078 
-0,014963 
0,007399 
0,033873 
0,049494 
0,044561 
0,025158 
-0,002302 
-0,007728 
-0,016608 
-0,011510 
-0,007235 
0,002466 
0,008222 
0,010195 
0,010195 
0,010524 
0,022363 
0,047357 
0,007235 
-0,006906 
-0,007399 
-0,103921 
0,086985 
1,293426 
-0,018745 
-0,103099 
-0,050152 
-0,039464 
-0,036997 
-0,026474 
-0,007235 
0,003618 
0,040615 
0,059689 
0,059360 
0,037326 
0,015786 
0,008057 
0,007893 
0,001809 
0,007235 
0,010524 
0,010195 
0,014634 
0,013483 
0,015128 
0,033544 
0,071199 
0,019732 
-0,001644 
-0,000329 
-0,125626 
0,201594 
1,199206 
-0,035682 
-0,082874 
-0,025158 
-0,016114 
-0,010853 
0,003782 
0,008386 
0,030256 
0,055743 
0,084518 
0,085012 
0,062978 
0,038642 
0,028611 
0,024336 
0,020554 
0,015128 
0,013155 
0,010030 
0,007071 
0,007728 
0,010359 
0,022856 
0,062484 
0,008057 
-0,008879 
-0,012004 
-0,126942 
0,109019 
1,132611 
-0,048508 
-0,119378 
-0,050974 
-0,050152 
-0,036175 
-0,024500 
-0,011510 
0,013483 
0,047850 
0,070213 
0,072021 
0,044561 
0,028611 
0,006248 
0,004769 
-0,001973 
0,003124 
0,007728 
0,001973 
0,006742 
0,002302 
0,009866 
0,025651 
0,065444 
0,010524 
-0,011510 
-0,011839 
-0,149798 
0,188111 
1,103671 
-0,041601 
-0,115760 
-0,046206 
-0,044726 
-0,030913 
-0,020390 
-0,002631 
0,022363 
0,054098 
0,078928 
0,078270 
0,054427 
0,025158 
0,009373 
0,002302 
0,007564 
0,002466 
0,006906 
0,006577 
0,007728 
0,010524 
0,010524 
0,040779 
0,065937 
0,013977 
0,001973 
-0,001973 
-0,172819 
0,328865 
1,021126 
-0,066102 
-0,084025 
-0,026803 
-0,026967 
-0,016608 
-0,007399 
0,017594 
0,040944 
0,075968 
0,093891 
0,083861 
0,056729 
0,034202 
0,021376 
0,010195 
0,010688 
0,010195 
0,010195 
0,008550 
0,007893 
0,002631 
0,007564 
0,047685 
0,048672 
0,003782 
-0,012004 
-0,015457 
-0,229219 
0,744222 
0,605605 
-0,128751 
-0,073830 
-0,051467 
-0,045548 
-0,041437 
-0,030420 
-0,008879 
0,019732 
0,047850 
0,059031 
0,050645 
0,025980 
0,007728 
-0,003946 
-0,002302 
-0,000493 
-0,002466 
0,010359 
0,008550 
0,010195 
0,007564 
0,010359 
0,054920 
0,058867 
0,009208 
-0,010853 
-0,010359 
-0,220011 
0,720543 
0,719228 
-0,117898 
-0,065280 
-0,046206 
-0,035353 
-0,031078 
-0,021870 
-0,008057 
0,015292 
0,043739 
0,049494 
0,043903 
0,020225 
0,002302 
-0,002795 
-0,007399 
-0,001644 
0,004769 
0,011017 
0,014306 
0,015128 
0,017430 
0,020225 
0,066595 
0,046370 
0,004769 
0,002631 
-0,006577 
-0,168379 
1,034774 
0,344322 
-0,114609 
-0,035682 
-0,030749 
-0,027131 
-0,015292 
-0,001644 
0,008550 
0,034038 
0,068568 
0,079256 
0,069391 
0,045055 
0,026638 
0,015621 
0,010688 
0,010688 
0,014963 
0,010030 
0,010853 
0,010359 
0,009208 
0,017759 
0,070706 
0,028447 
-0,002795 
-0,002466 
-0,063635 
-0,044232 
1,158920 
0,094878 
-0,111979 
-0,044890 
-0,040615 
-0,029598 
-0,022527 
-0,008386 
0,009537 
0,047850 
0,070213 
0,076297 
0,058702 
0,035353 
0,021212 
0,009537 
0,010524 
0,010195 
0,010195 
0,010688 
0,008879 
0,007893 
0,009866 
0,016279 
0,065609 
0,018910 
-0,006248 
-0,001151 
-0,080736 
0,016279 
1,151685 
0,032229 
-0,112965 
-0,041108 
-0,033709 
-0,026474 
-0,012332 
-0,000822 
0,029433 
0,062484 
0,083038 
0,084683 
0,060347 
0,040286 
0,023678 
0,015128 
0,014799 
0,010030 
0,010524 
0,007728 
0,004769 
0,008550 
0,007893 
0,012990 
0,067582 
0,026967 
-0,000329 
-0,006577 
-0,062813 
-0,073008 
1,144779 
0,099153 
-0,103428 
-0,031078 
-0,029927 
-0,016114 
-0,005097 
0,010853 
0,036340 
0,066102 
0,091260 
0,089122 
0,066102 
0,042424 
0,026638 
0,011510 
0,010359 
0,009866 
0,011510 
0,009866 
0,007893 
0,002466 
0,008386 
0,014634 
0,069226 
0,029269 
0,000329 
-0,010688 
-0,040615 
-0,158349 
1,060919 
0,227575 
-0,119542 
-0,055414 
-0,055085 
-0,042424 
-0,026145 
-0,018581 
0,010359 
0,030584 
0,055578 
0,057551 
0,035189 
0,008222 
-0,007235 
-0,009702 
-0,011510 
-0,007399 
0,001315 
0,010030 
0,009866 
0,007235 
0,007235 
0,015128 
0,066102 
0,028940 
-0,001480 
-0,006906 
-0,032229 
-0,130066 
1,160729 
0,210802 
-0,109183 
-0,035682 
-0,031571 
-0,030091 
-0,016443 
-0,005426 
0,010195 
0,038477 
0,064458 
0,074652 
0,059689 
0,035189 
0,025980 
0,015457 
0,010195 
0,010030 
0,010688 
0,020390 
0,015128 
0,010195 
0,015292 
0,023843 
0,071364 
0,022692 
0,002302 
0,003124 
-0,062813 
0,007235 
1,295071 
0,056565 
-0,107539 
-0,041108 
-0,031900 
-0,027131 
-0,011839 
-0,003124 
0,015621 
0,042424 
0,068075 
0,072021 
0,052947 
0,034695 
0,024829 
0,015457 
0,010853 
0,010524 
0,020554 
0,021212 
0,007564 
0,008386 
0,016443 
0,058045 
0,054920 
0,004604 
-0,006906 
-0,007399 
-0,212282 
0,579296 
0,769709 
-0,101948 
-0,082052 
-0,041273 
-0,026967 
-0,020225 
-0,011181 
0,005591 
0,037984 
0,065444 
0,084683 
0,073666 
0,049165 
0,030584 
0,016937 
0,012332 
0,010359 
0,015786 
0,009537 
0,010524 
0,003618 
0,010359 
0,031900 
0,055085 
0,008222 
-0,015457 
-0,016114 
-0,162788 
0,254048 
1,029019 
-0,076954 
-0,097180 
-0,038148 
-0,031735 
-0,016608 
-0,005426 
0,013483 
0,036175 
0,073172 
0,093727 
0,085340 
0,059689 
0,035682 
0,022198 
0,010688 
0,009866 
0,009702 
0,006906 
0,006742 
0,002302 
0,004440 
0,019567 
0,055743 
0,004111 
-0,011181 
-0,016443 
-0,107046 
0,046206 
1,136229 
-0,012661 
-0,119542 
-0,041930 
-0,044890 
-0,030584 
-0,017594 
0,004604 
0,025158 
0,060347 
0,081230 
0,078763 
0,053605 
0,029598 
0,012497 
0,002466 
-0,001973 
-0,000493 
0,007399 
0,002960 
0,003453 
0,010688 
0,024007 
0,063142 
0,008715 
-0,012332 
-0,016937 
-0,099482 
-0,001644 
1,152672 
0,151936 
-0,125298 
-0,050152 
-0,045712 
-0,036340 
-0,022198 
-0,004933 
0,017265 
0,050316 
0,066431 
0,061004 
0,035682 
0,008879 
0,000329 
-0,011839 
-0,011839 
-0,007399 
-0,011181 
-0,007728 
-0,007399 
-0,001644 
0,002960 
0,045877 
0,041930 
-0,003946 
-0,016937 
-0,021870 
-0,227410 
0,574198 
0,680586 
-0,116747 
-0,074324 
-0,050316 
-0,037326 
-0,033215 
-0,019567 
-0,003124 
0,020061 
0,050152 
0,060840 
0,052947 
0,025980 
0,009702 
0,007235 
-0,001315 
0,002466 
0,002960 
0,006742 
0,010853 
0,009044 
0,010359 
0,019567 
0,066431 
0,024829 
-0,004769 
-0,006577 
-0,071857 
-0,028447 
1,281587 
0,065280 
-0,114445 
-0,045548 
-0,044890 
-0,036340 
-0,026967 
-0,017594 
0,005920 
0,029598 
0,055743 
0,057551 
0,044561 
0,022363 
0,010359 
0,004440 
0,001973 
0,007399 
0,011017 
0,011839 
0,010524 
0,010030 
0,015621 
0,039957 
0,060018 
0,009373 
-0,006906 
-0,011510 
-0,175450 
0,377537 
1,046449 
-0,077612 
-0,091589 
-0,040944 
-0,042259 
-0,028447 
-0,020883 
-0,003124 
0,018088 
0,046370 
0,067417 
0,065280 
0,049330 
0,025323 
0,011510 
0,008222 
0,002466 
0,010195 
0,011839 
0,006906 
0,009044 
0,002960 
0,010688 
0,060511 
0,040944 
0,001315 
-0,012004 
-0,011181 
-0,218860 
0,797169 
0,520100 
-0,126284 
-0,071035 
-0,045712 
-0,041108 
-0,027460 
-0,008550 
0,010195 
0,045219 
0,067417 
0,078599 
0,061827 
0,035024 
0,016114 
0,004440 
0,001809 
0,004604 
0,002960 
0,007071 
0,007893 
0,007564 
0,008879 
0,015292 
0,070048 
0,028611 
-0,000493 
-0,013155 
-0,036340 
-0,170681 
1,041680 
0,250595 
-0,114281 
-0,052125 
-0,036340 
-0,026309 
-0,009537 
0,008386 
0,028118 
0,060511 
0,091096 
0,089616 
0,064951 
0,038313 
0,024500 
0,011675 
0,007893 
0,010359 
0,010359 
0,015621 
0,015621 
0,006906 
0,007399 
0,022363 
0,072021 
0,022363 
-0,001973 
-0,002302 
-0,077448 
0,091753 
1,163689 
-0,016443 
-0,106881 
-0,037819 
-0,035353 
-0,021541 
-0,007235 
0,014470 
0,033709 
0,068897 
0,084025 
0,083696 
0,049823 
0,031735 
0,015457 
0,008386 
0,008386 
0,007071 
0,010853 
0,007235 
0,004933 
0,001315 
0,000822 
0,006742 
0,050152 
0,012168 
-0,009537 
-0,021541 
-0,052125 
-0,205047 
1,116332 
0,208007 
-0,127600 
-0,063471 
-0,055743 
-0,044561 
-0,031735 
-0,017923 
0,007071 
0,038313 
0,061498 
0,064293 
0,045548 
0,024336 
0,007893 
0,003618 
0,000329 
0,002631 
0,007728 
0,010359 
0,009702 
0,002466 
0,007071 
0,011017 
0,041437 
0,058045 
0,009702 
-0,007728 
-0,012661 
-0,175778 
0,394309 
1,157276 
-0,083367 
-0,090273 
-0,041108 
-0,040450 
-0,031078 
-0,021870 
-0,011839 
0,015950 
0,035024 
0,064293 
0,058045 
0,042095 
0,019896 
0,009373 
0,007728 
0,002631 
0,007399 
0,011675 
0,009208 
0,010524 
0,010359 
0,010030 
0,035024 
0,055907 
0,009537 
-0,007235 
-0,001973 
-0,146674 
0,285455 
1,144944 
-0,062484 
-0,095371 
-0,045877 
-0,041601 
-0,027460 
-0,016937 
-0,002466 
0,021047 
0,053441 
0,076461 
0,073501 
0,053934 
0,036340 
0,012168 
0,010359 
0,010524 
0,010688 
0,011346 
0,012004 
0,007564 
0,002631 
0,010195 
0,048343 
0,059689 
0,006906 
-0,011839 
-0,011839 
-0,210638 
0,549040 
0,817723 
-0,101290 
-0,076297 
-0,041273 
-0,032229 
-0,021376 
-0,006577 
0,011017 
0,039628 
0,073501 
0,088794 
0,077448 
0,049823 
0,031735 
0,009373 
0,011017 
0,010853 
0,009373 
0,014963 
0,010359 
0,007235 
0,010359 
0,010524 
0,064458 
0,021870 
-0,004275 
-0,007399 
-0,038313 
-0,119707 
1,095449 
0,197319 
-0,104579 
-0,036997 
-0,031242 
-0,022363 
-0,003782 
0,011346 
0,035024 
0,070870 
0,094055 
0,097508 
0,073172 
0,047521 
0,029598 
0,017594 
0,007235 
0,006577 
0,015786 
0,015128 
0,008386 
0,007071 
0,009208 
0,049330 
0,054263 
0,010359 
-0,007399 
-0,006248 
-0,212282 
0,247307 
0,846334 
-0,082545 
-0,073337 
-0,036668 
-0,023021 
-0,010688 
0,000658 
0,018416 
0,048836 
0,084025 
0,090602 
0,084189 
0,054098 
0,024994 
0,010030 
0,001315 
0,006742 
0,009702 
0,010195 
0,007728 
0,007071 
0,009208 
0,010030 
0,063471 
0,020061 
-0,002466 
-0,005755 
-0,025158 
-0,204554 
0,972454 
0,366520 
-0,110499 
-0,067911 
-0,046534 
-0,036668 
-0,026309 
-0,008879 
0,010359 
0,039299 
0,065115 
0,070706 
0,056236 
0,025980 
0,012004 
0,002960 
-0,002795 
0,002960 
0,006742 
0,015457 
0,016114 
0,006577 
0,009866 
0,015128 
0,060182 
0,021047 
-0,001480 
-0,011181 
-0,037655 
-0,122338 
1,159578 
0,231685 
-0,127271 
-0,044726 
-0,046370 
-0,036504 
-0,025158 
-0,008879 
0,002631 
0,034038 
0,059525 
0,069391 
0,052125 
0,033215 
0,011839 
0,007564 
0,004933 
0,007893 
0,011675 
0,014963 
0,015128 
0,021376 
0,020554 
0,066760 
0,043739 
0,006906 
-0,000493 
-0,004769 
-0,213269 
0,723503 
0,741755 
-0,110499 
-0,062484 
-0,045055 
-0,031571 
-0,020718 
-0,017430 
0,001809 
0,018745 
0,050645 
0,063800 
0,056894 
0,032558 
0,020718 
0,007728 
0,008386 
0,011346 
0,011017 
0,010853 
0,009702 
0,010688 
0,013812 
0,040779 
0,058209 
0,008550 
-0,011839 
-0,012990 
-0,154731 
0,302391 
1,072758 
-0,076626 
-0,098660 
-0,046041 
-0,035353 
-0,024172 
-0,016608 
0,001973 
0,026638 
0,054263 
0,069555 
0,065773 
0,044561 
0,019732 
0,011510 
-0,002631 
0,002960 
0,005920 
0,007071 
0,010853 
0,002960 
0,007728 
0,032558 
0,061827 
0,014963 
-0,010359 
-0,011181 
-0,145358 
0,165584 
1,071113 
-0,076790 
-0,107539 
-0,042424 
-0,034860 
-0,023678 
-0,012332 
0,011181 
0,036504 
0,066595 
0,078270 
0,072186 
0,050974 
0,025487 
0,013648 
0,005591 
0,006906 
0,007564 
0,010688 
0,010195 
0,011017 
0,009044 
0,031900 
0,063142 
0,012332 
-0,006906 
-0,006906 
-0,114281 
0,120200 
1,155303 
-0,014634 
-0,097508 
-0,027296 
-0,024172 
-0,012661 
0,006084 
0,015128 
0,045219 
0,078434 
0,089945 
0,086163 
0,054592 
0,035189 
0,015786 
0,007399 
0,008550 
0,009537 
0,010688 
0,009537 
0,009373 
0,009537 
0,015292 
0,065609 
0,021047 
-0,011510 
-0,008386 
-0,049330 
-0,121845 
1,121430 
0,142727 
-0,113130 
-0,046699 
-0,035846 
-0,027789 
-0,013483 
0,006742 
0,027131 
0,053769 
0,075310 
0,074159 
0,042259 
0,009702 
0,007564 
-0,008879 
0,002960 
0,003453 
0,008386 
0,010359 
-0,003124 
0,008386 
0,009537 
0,048343 
0,036833 
-0,000164 
-0,011510 
-0,012332 
-0,219846 
0,729752 
0,693576 
-0,104744 
-0,060182 
-0,036668 
-0,026474 
-0,018745 
0,000000 
0,018745 
0,044726 
0,069884 
0,083861 
0,065115 
0,048343 
0,029927 
0,025323 
0,020061 
0,020718 
0,014963 
0,021047 
0,015621 
0,010195 
0,020718 
0,053112 
0,060840 
0,013977 
-0,002795 
-0,001973 
-0,192386 
0,481294 
1,013233 
-0,106059 
-0,073830 
-0,036340 
-0,026309 
-0,019239 
-0,005755 
0,007564 
0,025816 
0,054592 
0,064129 
0,060676 
0,039135 
0,023349 
0,007893 
0,015621 
0,009702 
0,019732 
0,010853 
0,020225 
0,020390 
0,017101 
0,038806 
0,071528 
0,012661 
-0,006248 
-0,008386 
-0,122502 
0,117076 
1,211703 
-0,032229 
-0,096029 
-0,040122 
-0,034202 
-0,031242 
-0,021541 
-0,010853 
0,009373 
0,039957 
0,069062 
0,056236 
0,043575 
0,012661 
0,007235 
0,002466 
-0,006577 
0,009702 
0,007564 
0,007071 
0,001315 
0,007893 
0,012004 
0,069391 
0,035682 
-0,001973 
-0,008057 
-0,021870 
-0,177916 
0,967850 
0,345966 
-0,119049 
-0,053934 
-0,036340 
-0,024500 
-0,013812 
0,007564 
0,010524 
0,053769 
0,074652 
0,080243 
0,065280 
0,035353 
0,020390 
0,007399 
0,010359 
0,007399 
0,003453 
0,007728 
0,008222 
0,008057 
0,006742 
0,038313 
0,057716 
0,005591 
-0,017594 
-0,016937 
-0,172325 
0,250760 
1,032143 
-0,080408 
-0,102113 
-0,037162 
-0,036668 
-0,021376 
-0,013812 
0,007728 
0,031900 
0,059853 
0,080572 
0,061004 
0,038313 
0,012004 
0,007564 
-0,001644 
-0,006906 
-0,006577 
0,004933 
0,002960 
0,004111 
0,002631 
0,007235 
0,059853 
0,018910 
-0,012661 
-0,021541 
-0,051796 
-0,140590 
1,077197 
0,172983 
-0,121516 
-0,060840 
-0,048836 
-0,046370 
-0,031078 
-0,003453 
0,010030 
0,038313 
0,062978 
0,060511 
0,037655 
0,015950 
-0,005755 
-0,000493 
-0,011181 
-0,006906 
0,001151 
0,003453 
0,007564 
0,002631 
0,006413 
0,036340 
0,054920 
0,005262 
-0,017430 
-0,021870 
-0,169201 
0,271314 
1,129980 
-0,070213 
-0,110005 
-0,052454 
-0,055578 
-0,046534 
-0,029433 
-0,012332 
0,013977 
0,052618 
0,059525 
0,055414 
0,029762 
0,009208 
-0,002302 
-0,002466 
-0,000329 
0,010030 
0,020390 
0,014963 
0,012661 
0,016772 
0,015128 
0,036504 
0,061169 
0,009373 
-0,006248 
-0,011510 
-0,188275 
0,265559 
1,089694 
-0,090602 
-0,090273 
-0,046534 
-0,041437 
-0,031078 
-0,009208 
-0,000822 
0,010524 
0,037655 
0,060347 
0,051796 
0,035024 
0,007399 
0,008550 
0,002302 
0,002960 
0,003782 
0,019239 
0,014963 
0,011181 
0,010030 
0,020061 
0,055085 
0,052947 
0,013155 
-0,001973 
-0,001973 
-0,193866 
0,607578 
0,871328 
-0,089945 
-0,063635 
-0,026309 
-0,021870 
-0,017430 
-0,002302 
0,017101 
0,035517 
0,062155 
0,078270 
0,072515 
0,047357 
0,031242 
0,019074 
0,010195 
0,010359 
0,020061 
0,015457 
0,011510 
0,010359 
0,010524 
0,015292 
0,059031 
0,050810 
0,012826 
0,001809 
-0,001644 
-0,218366 
0,612511 
0,781383 
-0,109676 
-0,064622 
-0,031735 
-0,024500 
-0,021047 
-0,001644 
0,012004 
0,045877 
0,071857 
0,079092 
0,060676 
0,039793 
0,010195 
0,008057 
0,007728 
0,008879 
0,010853 
0,020061 
0,011181 
0,009702 
0,010688 
0,005262 
0,057387 
0,058538 
0,009044 
-0,002631 
-0,003124 
-0,192715 
0,448736 
0,908490 
-0,088958 
-0,082545 
-0,030913 
-0,029762 
-0,024994 
-0,006248 
0,015786 
0,040122 
0,063800 
0,078105 
0,069391 
0,045055 
0,022034 
0,009373 
-0,001644 
0,008879 
0,008057 
0,020718 
0,009866 
0,007893 
0,009702 
0,012826 
0,007564 
0,075968 
0,042917 
0,007728 
-0,002466 
-0,003453 
-0,188440 
0,910298 
0,426867 
-0,094878 
-0,035682 
-0,037819 
-0,016937 
-0,007399 
0,010195 
0,029433 
0,063964 
0,081065 
0,089122 
0,077283 
0,045055 
0,025980 
0,015786 
0,010195 
0,007235 
0,010195 
0,012168 
0,014799 
0,007728 
0,007893 
0,007399 
0,012661 
0,045219 
0,056071 
-0,000164 
-0,007399 
-0,018745 
-0,215407 
0,469290 
0,907668 
-0,103757 
-0,099811 
-0,059689 
-0,051632 
-0,026309 
-0,021047 
0,003124 
0,026309 
0,056236 
0,059196 
0,045548 
0,013483 
0,007893 
-0,001480 
-0,006248 
-0,002302 
-0,002466 
0,002466 
0,003124 
0,007071 
0,002960 
0,003782 
0,009537 
0,022198 
0,046699 
0,061498 
0,015292 
-0,002466 
0,000164 
-0,211296 
0,679271 
0,817887 
-0,080408 
-0,060182 
-0,037326 
-0,025816 
-0,014634 
-0,010359 
0,010195 
0,030749 
0,057880 
0,074488 
0,068897 
0,044561 
0,029598 
0,010853 
0,015786 
0,018416 
0,020554 
0,030091 
0,030256 
0,026638 
0,010524 
0,010853 
0,020554 
0,031735 
0,065115 
0,032393 
-0,005426 
-0,006577 
-0,089616 
0,000658 
1,253305 
0,050645 
-0,115760 
-0,060676 
-0,050645 
-0,048836 
-0,036833 
-0,006248 
-0,003124 
0,024500 
0,057551 
0,073995 
0,049823 
0,026474 
0,008386 
0,007071 
0,011181 
0,007071 
0,002960 
0,018088 
0,010195 
0,010195 
0,001315 
0,010688 
0,007399 
0,061333 
0,013977 
-0,007399 
-0,002795 
-0,060676 
-0,102935 
1,140011 
0,061827 
-0,133684 
-0,061662 
-0,067417 
-0,043410 
-0,050645 
-0,031078 
-0,006577 
0,001809 
0,049659 
0,054920 
0,035024 
0,012661 
-0,002302 
-0,011839 
-0,007399 
-0,006577 
-0,008386 
-0,001151 
-0,008550 
-0,005426 
0,007728 
0,009537 
0,020883 
0,058702 
0,012168 
-0,005097 
-0,007235 
-0,131382 
0,161966 
1,140997 
-0,036997 
-0,099811 
-0,046206 
-0,031735 
-0,032229 
-0,002302 
0,002960 
0,029927 
0,063307 
0,080736 
0,065444 
0,050481 
0,029433 
0,009044 
0,001973 
0,002302 
0,003453 
0,008057 
0,010359 
0,010853 
0,003124 
0,003289 
0,010359 
0,074324 
0,049987 
0,008386 
0,000658 
-0,007728 
-0,205870 
0,618266 
0,753923 
-0,110499 
-0,074324 
-0,045055 
-0,031900 
-0,017759 
-0,002795 
0,017430 
0,049330 
0,078105 
0,090931 
0,077941 
0,046863 
0,021212 
0,015786 
0,008879 
0,011181 
0,006906 
0,011017 
0,010195 
0,007399 
0,009702 
0,010853 
0,014963 
0,065444 
0,035024 
0,004111 
-0,011510 
-0,016443 
-0,219024 
0,856529 
0,499875 
-0,109348 
-0,067417 
-0,057716 
-0,040286 
-0,031571 
-0,015292 
0,006248 
0,048836 
0,066266 
0,073830 
0,048836 
0,020554 
0,010524 
-0,001973 
-0,001480 
0,002138 
0,015786 
0,009702 
0,007564 
0,009044 
-0,001480 
0,010359 
0,015457 
0,075803 
0,043081 
0,009866 
-0,012332 
-0,023843 
-0,163446 
1,090352 
0,317519 
-0,115760 
-0,041273 
-0,036340 
-0,025158 
-0,021376 
-0,003124 
0,010359 
0,039793 
0,077777 
0,076790 
0,058867 
0,020883 
0,003289 
0,006906 
0,010688 
0,011675 
0,013319 
0,028940 
0,021541 
0,034366 
0,024665 
0,029927 
0,060511 
0,078270 
0,025323 
0,002466 
-0,001480 
-0,126777 
0,174463 
1,143464 
-0,071199 
-0,101784 
-0,051139 
-0,045219 
-0,039957 
-0,028940 
-0,012661 
0,007235 
0,036997 
0,064786 
0,069391 
0,046041 
0,030749 
0,014799 
0,009208 
0,007564 
0,024829 
0,011346 
0,021870 
0,024500 
0,011510 
0,017594 
0,021212 
0,068733 
0,034202 
0,003618 
-0,002466 
-0,016937 
-0,178409 
0,976400 
0,349748 
-0,123982 
-0,054098 
-0,046863 
-0,036997 
-0,027625 
-0,012990 
0,009373 
0,040450 
0,072186 
0,083203 
0,074817 
0,039957 
0,011510 
0,008386 
0,010030 
0,007893 
0,010359 
0,012168 
0,011181 
0,009044 
0,008057 
0,010853 
0,019732 
0,069555 
0,028940 
-0,002302 
-0,002466 
-0,064293 
-0,019896 
1,166649 
0,110828 
-0,108690 
-0,025158 
-0,013483 
-0,014634 
-0,002466 
0,012826 
0,033215 
0,077777 
0,095042 
0,093233 
0,076954 
0,041930 
0,019403 
0,002631 
0,005755 
0,008057 
0,016772 
0,010195 
0,013648 
0,015621 
-0,003453 
0,013155 
0,015128 
0,051303 
0,058702 
0,016772 
0,001809 
-0,011510 
-0,206692 
0,597877 
0,815914 
-0,106388 
-0,074652 
-0,044726 
-0,031571 
-0,020883 
-0,006577 
0,014799 
0,042095 
0,069391 
0,084025 
0,063964 
0,050152 
0,020225 
0,002960 
0,002960 
0,009044 
0,007893 
0,008386 
0,002960 
0,010030 
0,009044 
0,008057 
0,008057 
0,025651 
0,070706 
0,056729 
0,001809 
0,006577 
0,002138 
-0,217544 
0,772504 
0,610867 
-0,099153 
-0,064951 
-0,041108 
-0,036175 
-0,031407 
-0,006248 
0,008550 
0,040122 
0,065609 
0,076461 
0,054098 
0,032064 
0,007399 
0,000164 
-0,006248 
-0,003782 
0,007235 
0,011510 
0,016772 
0,010195 
-0,000822 
0,007564 
-0,002631 
0,017101 
0,024994 
0,084518 
0,045383 
0,023021 
0,012168 
-0,033380 
-0,073008 
1,233737 
0,174792 
-0,107374 
-0,026474 
-0,014634 
-0,011510 
-0,002466 
0,011017 
0,026967 
0,049330 
0,078928 
0,093891 
0,075968 
0,035682 
0,029269 
0,020390 
0,015457 
0,020883 
0,018416 
0,014963 
0,029762 
0,012004 
0,010030 
0,008222 
0,020718 
0,030091 
0,070542 
0,044561 
0,012168 
0,006577 
-0,033215 
-0,108525 
1,200686 
0,178245 
-0,089451 
-0,037819 
-0,017759 
-0,022363 
-0,011839 
-0,007399 
0,009373 
0,031407 
0,068897 
0,080572 
0,070048 
0,049659 
0,024336 
0,016937 
0,009208 
0,009537 
0,008222 
0,021212 
0,010688 
0,010524 
0,003124 
0,008879 
0,008222 
0,024665 
0,067582 
0,033051 
0,002631 
-0,002631 
-0,068075 
-0,027954 
1,170595 
0,066924 
-0,118391 
-0,045219 
-0,041108 
-0,029433 
-0,021870 
-0,002795 
0,014963 
0,041766 
0,077777 
0,079421 
0,060182 
0,030584 
0,010030 
0,001809 
-0,000822 
0,002466 
0,003618 
0,010195 
0,006906 
0,005920 
0,003124 
0,004440 
0,010195 
0,013648 
0,063471 
0,025323 
-0,003618 
-0,012004 
-0,083038 
-0,007399 
1,156783 
0,058867 
-0,104579 
-0,048014 
-0,041273 
-0,031078 
-0,017265 
-0,006577 
0,022527 
0,049165 
0,077448 
0,073995 
0,061333 
0,028118 
0,010853 
0,002631 
0,001315 
0,002302 
0,007564 
0,007893 
0,015292 
0,011510 
0,002631 
-0,001973 
0,002302 
0,008222 
0,043081 
0,051796 
0,009537 
-0,007399 
-0,006906 
-0,214584 
0,435746 
0,945323 
-0,093069 
-0,094878 
-0,046370 
-0,046206 
-0,031735 
-0,021870 
-0,004275 
0,029269 
0,059853 
0,078763 
0,075310 
0,044068 
0,021212 
-0,002466 
-0,006084 
-0,011510 
-0,007235 
-0,006248 
-0,006248 
-0,003782 
-0,002302 
-0,006577 
-0,002466 
0,010359 
0,014141 
0,065444 
0,018910 
-0,005755 
-0,009208 
-0,079914 
-0,022692 
1,197398 
0,048343 
-0,118556 
-0,058374 
-0,041273 
-0,041108 
-0,028940 
-0,012332 
0,007235 
0,044397 
0,069555 
0,068239 
0,054427 
0,015457 
-0,002631 
-0,011510 
-0,012332 
-0,007399 
-0,001644 
0,002631 
0,007564 
0,007235 
0,007564 
0,007893 
0,015621 
0,020225 
0,070870 
0,042259 
0,008879 
-0,001973 
-0,028611 
-0,099482 
1,199535 
0,249773 
-0,107374 
-0,042588 
-0,032393 
-0,026638 
-0,011839 
0,001151 
0,014963 
0,043081 
0,076954 
0,078928 
0,064458 
0,039793 
0,021047 
0,007235 
0,002960 
0,001809 
0,010030 
0,021870 
0,020390 
0,015621 
0,017430 
0,011181 
0,019567 
0,028118 
0,061333 
0,017594 
-0,007728 
-0,006906 
-0,148647 
0,191893 
1,203646 
-0,065444 
-0,104415 
-0,051139 
-0,046863 
-0,036340 
-0,030749 
-0,011510 
0,007564 
0,030749 
0,059525 
0,060840 
0,042424 
0,009044 
-0,007399 
-0,012004 
-0,016114 
-0,007399 
-0,001480 
0,002631 
0,002466 
0,002631 
0,006577 
0,012990 
0,019732 
0,065115 
0,036504 
0,004275 
-0,002795 
-0,019567 
-0,165090 
1,012904 
0,334785 
-0,116747 
-0,041601 
-0,032558 
-0,027625 
-0,016937 
-0,005426 
0,015786 
0,046534 
0,079092 
0,083696 
0,070377 
0,035517 
0,016279 
-0,001973 
0,000822 
-0,001644 
0,006906 
0,010030 
0,010524 
0,009373 
0,007564 
0,010688 
0,020554 
0,051303 
0,050645 
0,008550 
-0,001973 
-0,002466 
-0,199292 
0,459589 
0,928222 
-0,095042 
-0,089287 
-0,041273 
-0,035846 
-0,022527 
-0,010030 
0,009208 
0,037984 
0,070542 
0,090273 
0,083203 
0,051139 
0,019732 
0,002631 
-0,001644 
-0,001973 
0,007564 
0,007564 
0,007235 
0,009208 
0,007399 
0,006906 
0,015128 
0,045383 
0,058867 
0,010359 
0,002960 
0,000658 
-0,172161 
0,297623 
1,071771 
-0,062155 
-0,097837 
-0,041273 
-0,036504 
-0,026474 
-0,014634 
0,011181 
0,031571 
0,067911 
0,093069 
0,083861 
0,054263 
0,025651 
0,007728 
0,003289 
-0,006906 
0,002960 
0,008386 
0,010195 
0,007235 
0,007893 
0,007728 
0,009702 
0,011181 
0,042752 
0,054592 
0,010688 
-0,008057 
-0,008550 
-0,197483 
0,327878 
1,058288 
-0,089780 
-0,098002 
-0,054427 
-0,045877 
-0,041437 
-0,025487 
-0,009208 
0,015292 
0,049823 
0,073501 
0,066266 
0,042917 
0,014470 
0,002466 
-0,007399 
-0,005097 
-0,001973 
0,007071 
0,006577 
0,009373 
0,011017 
0,002302 
0,007071 
0,002466 
0,010030 
0,020883 
0,067088 
0,051632 
0,007564 
-0,000822 
-0,002795 
-0,176765 
1,074895 
0,400064 
-0,116254 
-0,040944 
-0,036175 
-0,031078 
-0,020883 
-0,007235 
0,010030 
0,030256 
0,068733 
0,083861 
0,072515 
0,047028 
0,019896 
0,011181 
0,007071 
0,007564 
0,015950 
0,020225 
0,020390 
0,025158 
0,021705 
0,016772 
0,010195 
0,010359 
0,020225 
0,057551 
0,061662 
0,014634 
-0,002302 
-0,002631 
-0,208172 
0,613004 
0,867382 
-0,094384 
-0,063471 
-0,036997 
-0,030584 
-0,021541 
-0,016937 
0,000164 
0,022527 
0,055085 
0,078763 
0,071528 
0,046863 
0,019403 
0,004275 
-0,001973 
0,002960 
0,006577 
0,011017 
0,016114 
0,009866 
0,010524 
0,002466 
0,002466 
0,017101 
0,027625 
0,067746 
0,019403 
-0,002302 
-0,005920 
-0,086163 
0,092576 
1,161387 
-0,044068 
-0,108361 
-0,055743 
-0,044397 
-0,040450 
-0,023185 
-0,006084 
0,011346 
0,056400 
0,077941 
0,079421 
0,058209 
0,019567 
0,003782 
-0,002466 
-0,002302 
0,004933 
0,007564 
0,003618 
0,009702 
0,008386 
0,003124 
0,002138 
0,007071 
0,010030 
0,064129 
0,041766 
0,010195 
0,002302 
-0,017430 
-0,193208 
0,950256 
0,362574 
-0,108032 
-0,050974 
-0,042259 
-0,031900 
-0,012004 
-0,006577 
0,021047 
0,052290 
0,089945 
0,103592 
0,088794 
0,056400 
0,025651 
0,012826 
0,007728 
0,007564 
0,008386 
0,010359 
0,011181 
0,009537 
0,009373 
0,007564 
0,010524 
0,006248 
0,007399 
0,020718 
0,048508 
0,064458 
0,029433 
0,002138 
-0,000164 
-0,192715 
0,405326 
1,016193 
-0,069226 
-0,078270 
-0,038313 
-0,028940 
-0,016114 
-0,004275 
0,017101 
0,038806 
0,081559 
0,108690 
0,099811 
0,079421 
0,035846 
0,015621 
0,008057 
0,002302 
0,007564 
0,010524 
0,010688 
0,009537 
0,008879 
0,002302 
-0,002795 
0,002631 
0,003782 
0,002631 
0,008057 
0,010359 
0,015621 
0,020554 
0,074324 
0,037984 
0,011181 
0,002302 
-0,043246 
-0,090602 
1,130474 
0,195839 
-0,106223 
-0,036668 
-0,026803 
-0,021870 
-0,006577 
0,001151 
0,021705 
0,051796 
0,085669 
0,103757 
0,085505 
0,058538 
0,030091 
0,014963 
0,007893 
0,007728 
0,021541 
0,030749 
0,035682 
0,035024 
0,035189 
0,031900 
0,019732 
0,027296 
0,015128 
0,030420 
0,043081 
0,060676 
0,024994 
-0,006084 
-0,006906 
-0,115925 
0,125955 
1,292111 
-0,019074 
-0,108197 
-0,038477 
-0,045877 
-0,025980 
-0,022198 
-0,011839 
0,009044 
0,033544 
0,065280 
0,079585 
0,059525 
0,023349 
0,006742 
-0,002795 
0,001973 
0,006906 
0,009373 
0,015621 
0,015950 
0,014634 
0,008879 
0,005591 
0,007564 
0,010524 
0,014963 
0,059525 
0,031571 
0,000658 
-0,007399 
-0,041766 
-0,125626 
1,102685 
0,250266 
-0,108854 
-0,051632 
-0,046534 
-0,030584 
-0,026309 
-0,011839 
0,007071 
0,038148 
0,082710 
0,088629 
0,082710 
0,038477 
0,012004 
0,004111 
-0,006577 
-0,000493 
0,008057 
0,007893 
0,008386 
0,009044 
0,007235 
0,002960 
0,004440 
0,007564 
0,012332 
0,065609 
0,030420 
0,009537 
0,009044 
-0,039957 
-0,095206 
1,115839 
0,169366 
-0,102770 
-0,041766 
-0,026967 
-0,017759 
-0,014634 
0,003782 
0,017594 
0,056071 
0,093891 
0,104086 
0,089122 
0,049987 
0,019567 
0,005591 
0,002302 
0,006577 
0,007235 
0,008715 
0,011017 
0,007728 
0,007893 
0,002960 
0,003124 
0,009866 
0,014306 
0,054427 
0,023843 
0,002302 
-0,002302 
-0,051632 
-0,080079 
1,146259 
0,154073 
-0,107868 
-0,041766 
-0,030420 
-0,021870 
-0,011510 
0,000164 
0,025158 
0,069719 
0,089287 
0,108361 
0,088136 
0,051467 
0,024172 
0,002960 
0,003618 
0,002302 
0,007728 
0,012004 
0,010195 
0,010030 
0,007564 
0,005262 
0,010688 
0,010688 
0,065937 
0,040286 
0,010688 
0,002466 
-0,002795 
-0,221655 
0,791578 
0,598041 
-0,114445 
-0,066924 
-0,042259 
-0,031900 
-0,022198 
-0,006906 
0,012826 
0,037655 
0,085176 
0,092576 
0,084847 
0,047685 
0,016772 
0,003124 
-0,001973 
-0,002466 
0,007564 
0,008715 
0,010030 
0,009866 
0,011839 
0,010030 
0,005920 
0,016937 
0,024994 
0,065115 
0,025158 
0,006084 
0,002302 
-0,061498 
-0,016114 
1,307567 
0,095864 
-0,099646 
-0,036340 
-0,031900 
-0,021376 
-0,016279 
-0,007399 
0,011017 
0,049165 
0,079092 
0,093562 
0,074981 
0,044890 
0,026967 
0,007564 
0,007235 
0,007564 
0,010359 
0,022527 
0,020225 
0,025323 
0,014634 
0,010195 
0,011510 
0,015292 
0,043081 
0,055414 
0,019567 
0,004604 
-0,001644 
-0,164761 
0,427853 
1,104000 
-0,071857 
-0,074488 
-0,026803 
-0,022034 
-0,011839 
0,001151 
0,010359 
0,032558 
0,065937 
0,094384 
0,101126 
0,076297 
0,040615 
0,020883 
0,006413 
0,007728 
0,009702 
0,012332 
0,015950 
0,010688 
0,012661 
0,007564 
0,002138 
0,010359 
0,009208 
0,069884 
0,042917 
0,009702 
0,007564 
-0,005097 
-0,171174 
0,977222 
0,427360 
-0,105401 
-0,039957 
-0,019567 
-0,016937 
-0,014141 
0,005426 
0,024665 
0,059689 
0,093398 
0,110170 
0,099317 
0,066102 
0,037984 
0,019074 
0,009537 
0,010524 
0,010359 
0,015457 
0,015621 
0,015128 
0,010524 
0,010359 
0,010359 
0,010030 
0,016279 
0,054920 
0,028447 
0,001809 
-0,006906 
-0,058209 
-0,083861 
1,180790 
0,069555 
-0,107868 
-0,043410 
-0,036340 
-0,026474 
-0,016443 
-0,004604 
0,022034 
0,058538 
0,088629 
0,102113 
0,084518 
0,046041 
0,020225 
0,007728 
0,002302 
0,007893 
0,010195 
0,015292 
0,015292 
0,011675 
0,007564 
0,007564 
0,008386 
0,015292 
0,027625 
0,064129 
0,024829 
0,002466 
0,002466 
-0,097837 
0,043739 
1,196740 
0,033215 
-0,103428 
-0,029762 
-0,032064 
-0,017265 
-0,011839 
0,007728 
0,038148 
0,064129 
0,095864 
0,099482 
0,080243 
0,044232 
0,012004 
-0,003453 
-0,006577 
-0,000822 
0,002138 
0,002960 
0,008222 
0,008057 
-0,002795 
-0,002302 
0,002960 
0,002960 
0,054756 
0,018581 
0,000822 
-0,012004 
-0,026474 
-0,176436 
1,063714 
0,314395 
-0,122502 
-0,057551 
-0,047028 
-0,036833 
-0,026638 
-0,021541 
0,005755 
0,035517 
0,068404 
0,077777 
0,070048 
0,031735 
0,007071 
-0,006577 
-0,015786 
-0,011510 
-0,006906 
-0,002302 
-0,002302 
0,004440 
0,009866 
0,004440 
0,002631 
0,020883 
0,044726 
0,058538 
0,022692 
-0,003782 
0,002960 
-0,138781 
0,187124 
1,279778 
-0,040779 
-0,095535 
-0,042588 
-0,044726 
-0,037491 
-0,022034 
-0,006906 
0,007564 
0,036997 
0,073995 
0,077612 
0,054098 
0,016114 
0,002631 
-0,001644 
-0,007235 
-0,002302 
0,006248 
0,002302 
0,007728 
0,007564 
0,010359 
0,011510 
0,010030 
0,013648 
0,060018 
0,029433 
0,001809 
-0,006084 
-0,036668 
-0,089616 
1,186874 
0,164104 
-0,118556 
-0,048508 
-0,041108 
-0,035846 
-0,026967 
-0,006906 
0,007235 
0,034531 
0,073501 
0,084683 
0,073337 
0,043575 
0,016279 
-0,001973 
-0,000822 
-0,002302 
-0,002466 
0,008386 
0,007728 
0,001809 
0,002960 
0,002631 
0,015786 
0,018416 
0,062813 
0,027954 
0,005920 
-0,001973 
-0,034695 
-0,105237 
1,122088 
0,190248 
-0,110663 
-0,035024 
-0,025651 
-0,022034 
-0,008386 
0,005755 
0,024172 
0,063635 
0,088958 
0,099317 
0,083038 
0,049165 
0,020061 
0,007071 
0,009866 
0,010195 
0,015621 
0,011017 
0,011181 
0,011181 
0,006577 
0,007071 
0,011510 
0,016279 
0,071528 
0,033544 
0,002631 
0,002466 
-0,032722 
-0,160157 
1,051710 
0,262928 
-0,114116 
-0,063800 
-0,045383 
-0,036175 
-0,018745 
-0,005426 
0,012661 
0,045548 
0,084683 
0,088958 
0,081394 
0,035189 
0,014799 
0,006906 
-0,001973 
0,001151 
0,002138 
0,010359 
0,008550 
0,010359 
0,005262 
0,002960 
0,008057 
0,011346 
0,015621 
0,063964 
0,045055 
0,007728 
-0,002466 
-0,008879 
-0,205705 
0,855049 
0,507439 
-0,104744 
-0,047850 
-0,036668 
-0,026309 
-0,011181 
0,002466 
0,019732 
0,049987 
0,082216 
0,098660 
0,093891 
0,060182 
0,034531 
0,003289 
0,002466 
0,001973 
0,008057 
0,010688 
0,008222 
0,007399 
0,007564 
0,001809 
-0,001973 
0,009537 
0,006577 
0,060018 
0,042424 
0,011181 
-0,007235 
-0,008550 
-0,212118 
0,878070 
0,574363 
-0,100797 
-0,059360 
-0,035682 
-0,026309 
-0,016114 
-0,009208 
0,011839 
0,044890 
0,073666 
0,093562 
0,081723 
0,048343 
0,021047 
0,010030 
-0,001315 
0,002960 
0,007564 
0,015128 
0,015128 
0,009044 
0,014634 
0,012168 
0,011181 
0,020554 
0,024172 
0,071528 
0,041601 
0,010030 
0,007728 
-0,037819 
-0,059360 
1,247056 
0,137794 
-0,098824 
-0,038806 
-0,036668 
-0,030913 
-0,016279 
-0,011510 
0,000987 
0,031900 
0,066266 
0,084354 
0,067746 
0,037491 
0,019896 
0,010195 
0,007728 
0,007564 
0,012497 
0,015786 
0,023185 
0,025323 
0,025323 
0,026638 
0,024829 
0,033051 
0,069391 
0,026638 
0,004275 
-0,006248 
-0,092904 
0,060840 
1,218116 
0,014634 
-0,121351 
-0,050152 
-0,053934 
-0,046699 
-0,034366 
-0,031571 
-0,006577 
0,020390 
0,055249 
0,062978 
0,053934 
0,016279 
-0,007399 
-0,017265 
-0,011839 
-0,016608 
-0,000822 
0,000164 
-0,007235 
0,006742 
0,003124 
0,006248 
0,019732 
0,060840 
0,032887 
0,006248 
-0,001973 
-0,008550 
-0,203239 
0,867217 
0,470770 
-0,106059 
-0,064129 
-0,050810 
-0,033051 
-0,026967 
-0,016443 
0,004111 
0,034202 
0,091918 
0,088629 
0,079256 
0,044561 
0,015950 
0,003453 
-0,001973 
-0,001973 
0,008222 
0,003124 
0,006577 
0,006742 
0,002138 
0,007071 
0,010688 
0,048672 
0,045219 
0,007071 
-0,001973 
-0,016443 
-0,202581 
0,501355 
0,934306 
-0,087971 
-0,082216 
-0,036668 
-0,036175 
-0,029762 
-0,012332 
0,010030 
0,043246 
0,071857 
0,095206 
0,094878 
0,063471 
0,027789 
0,010853 
0,009208 
0,007564 
-0,006248 
0,009044 
0,010195 
0,008057 
0,007564 
0,002960 
0,010853 
0,034038 
0,046041 
0,023185 
0,002960 
-0,000164 
-0,134999 
0,165912 
1,140504 
-0,034366 
-0,095700 
-0,027296 
-0,027460 
-0,017594 
0,002631 
0,011181 
0,029927 
0,070870 
0,093727 
0,091260 
0,064951 
0,026803 
0,008386 
-0,002466 
-0,002466 
0,003289 
0,008057 
0,006742 
0,015128 
0,009044 
0,006577 
0,007564 
0,010688 
0,060018 
0,022856 
0,008550 
-0,001644 
-0,016114 
-0,130724 
1,143628 
0,228726 
-0,121022 
-0,056400 
-0,050810 
-0,054592 
-0,061169 
-0,086656 
-0,118063 
-0,112472 
-0,091260 
-0,057058 
-0,034695 
-0,046534 
-0,045055 
-0,026309 
0,005755 
0,015457 
0,035682 
0,034531 
0,016937 
0,007893 
0,002631 
-0,012004 
-0,041273 
-0,025980 
-0,012990 
-0,060018 
-0,089287 
-0,056071 
-0,178738 
0,246484 
1,197398 
-0,111650 
-0,141248 
-0,094878 
-0,092411 
-0,112143 
-0,106552 
-0,119542 
-0,114445 
-0,074817 
-0,063307 
-0,062978 
-0,088300 
-0,126449 
-0,143714 
-0,153416 
-0,149469 
-0,148318 
-0,144865 
-0,148976 
-0,149140 
-0,138123 
-0,133519 
-0,125626 
-0,113952 
-0,065609 
-0,109841 
-0,119871 
-0,125462 
-0,150456 
-0,159335 
1,090845 
0,013155 
-0,210309 
-0,144372 
-0,142234 
-0,124475 
-0,110992 
-0,104744 
-0,089780 
-0,061169 
-0,030584 
-0,012332 
-0,023678 
-0,055414 
-0,071035 
-0,085012 
-0,091589 
-0,075310 
-0,068239 
-0,061169 
-0,056236 
-0,046370 
-0,050481 
-0,023843 
-0,003782 
0,035189 
0,005920 
-0,020225 
-0,017265 
-0,101455 
0,032722 
1,176021 
0,010030 
-0,120200 
-0,069884 
-0,082052 
-0,107374 
-0,137630 
-0,170845 
-0,158677 
-0,140425 
-0,104415 
-0,114445 
-0,126613 
-0,171174 
-0,168214 
-0,152758 
-0,147167 
-0,110005 
-0,099975 
-0,088958 
-0,085176 
-0,080079 
-0,075146 
-0,061004 
-0,048014 
0,016114 
-0,006906 
-0,047357 
-0,036833 
-0,050974 
-0,203239 
0,978209 
0,309298 
-0,144701 
-0,080079 
-0,055085 
-0,050645 
-0,023021 
-0,014634 
0,016772 
0,047028 
0,094055 
0,104908 
0,083367 
0,048508 
0,017594 
0,007893 
0,006413 
0,011510 
0,007564 
0,007893 
0,007071 
0,010195 
-0,010853 
0,007564 
0,010853 
0,059031 
0,021047 
-0,001644 
0,003618 
-0,051303 
-0,063964 
1,204633 
0,126942 
-0,108690 
-0,036833 
-0,036668 
-0,002795 
0,002960 
0,016772 
0,035517 
0,072679 
0,099153 
0,107868 
0,068075 
0,036175 
0,004111 
-0,011510 
-0,007235 
-0,006577 
0,000658 
-0,002302 
-0,000493 
0,001809 
0,010853 
0,022198 
0,059689 
0,021047 
-0,008879 
-0,012990 
-0,069884 
-0,033544 
1,266788 
0,049987 
-0,121680 
-0,041273 
-0,036504 
-0,022692 
0,003289 
0,009537 
0,035682 
0,052290 
0,088794 
0,098824 
0,066431 
0,030749 
-0,006248 
-0,002466 
-0,002466 
0,002960 
0,007728 
0,002631 
0,007893 
0,009044 
0,019732 
0,038806 
0,070377 
0,022692 
0,002960 
-0,000822 
-0,126613 
0,356654 
1,175693 
-0,085998 
-0,088465 
-0,044890 
-0,040944 
-0,018416 
-0,027460 
-0,010359 
0,015128 
0,047357 
0,070870 
0,069226 
0,037326 
0,010853 
-0,001644 
0,001809 
-0,012332 
-0,002302 
0,007564 
0,008057 
0,009044 
0,014799 
0,026145 
0,071857 
0,065115 
0,022198 
0,007235 
0,007564 
-0,187618 
0,762145 
0,696043 
-0,112143 
-0,044890 
-0,021870 
-0,011839 
-0,004933 
0,012004 
0,036175 
0,051796 
0,083696 
0,103428 
0,098495 
0,064786 
0,041108 
0,027296 
0,022034 
0,015292 
0,028447 
0,027296 
0,023349 
0,021376 
0,015128 
0,026474 
0,055249 
0,062484 
0,008057 
-0,006577 
-0,001644 
-0,185809 
0,515496 
0,918849 
-0,082874 
-0,056894 
-0,005097 
-0,007399 
0,011181 
0,034860 
0,057058 
0,078105 
0,112801 
0,141576 
0,122996 
0,079256 
0,071693 
0,055085 
0,044397 
0,049659 
0,049330 
0,045055 
0,041108 
0,036668 
0,035682 
0,034531 
0,035189 
0,094549 
0,043410 
0,008715 
0,008222 
-0,014306 
-0,133190 
1,101040 
0,252568 
-0,081723 
-0,010030 
0,003289 
0,020390 
0,035024 
0,052947 
0,076297 
0,121351 
0,146674 
0,152265 
0,137466 
0,106388 
0,084518 
0,076626 
0,063635 
0,068733 
0,069062 
0,069719 
0,066595 
0,059525 
0,055414 
0,049823 
0,059525 
0,097508 
0,068239 
0,016772 
0,011675 
0,015621 
-0,186138 
0,822163 
0,648357 
-0,063800 
-0,008550 
0,019074 
0,031242 
0,049001 
0,064786 
0,085834 
0,125298 
0,150620 
0,167557 
0,153416 
0,128915 
0,100304 
0,086327 
0,079256 
0,079421 
0,078599 
0,069226 
0,074817 
0,068733 
0,064293 
0,054756 
0,062320 
0,066760 
0,106223 
0,046534 
0,014306 
0,012497 
-0,086820 
0,179725 
1,242945 
-0,030584 
-0,063307 
0,007728 
0,014141 
0,025323 
0,035682 
0,059689 
0,076790 
0,098002 
0,123489 
0,119707 
0,098660 
0,054920 
0,050316 
0,039793 
0,045712 
0,033380 
0,034038 
0,030584 
0,030420 
0,028282 
0,011181 
0,010688 
0,010853 
0,020061 
0,055743 
0,053934 
0,008550 
-0,006577 
-0,020390 
-0,145029 
1,144779 
0,273287 
-0,112965 
-0,031571 
-0,026638 
-0,020225 
-0,011510 
-0,003453 
0,009866 
0,034531 
0,061169 
0,070213 
0,043739 
0,029598 
0,010359 
0,009702 
-0,002302 
-0,002795 
-0,002631 
0,010688 
0,004440 
0,007235 
0,012826 
0,010688 
0,010688 
0,009044 
0,013648 
0,061004 
0,075146 
0,023185 
0,012661 
0,008715 
-0,178080 
0,636518 
0,830384 
-0,095535 
-0,045877 
-0,012990 
-0,001644 
0,003618 
0,007893 
0,025323 
0,049330 
0,084683 
0,093727 
0,089616 
0,062320 
0,036011 
0,026309 
0,010853 
0,015621 
0,015786 
0,028447 
0,025323 
0,024994 
0,024994 
0,020225 
0,017430 
0,020718 
0,020883 
0,034531 
0,071693 
0,075475 
0,026638 
0,024994 
0,017594 
-0,180876 
0,842881 
0,566306 
-0,085669 
-0,019567 
0,004604 
0,015457 
0,030420 
0,034202 
0,054920 
0,079421 
0,107046 
0,118063 
0,107868 
0,077283 
0,044397 
0,034202 
0,020225 
0,020718 
0,013812 
0,017759 
0,024994 
0,020390 
0,019732 
0,022363 
0,022692 
0,016114 
0,016114 
0,021047 
0,049330 
0,047685 
0,009702 
0,009373 
0,006577 
-0,200772 
0,832029 
0,527006 
-0,091260 
-0,017594 
-0,005426 
0,006413 
0,011839 
0,035024 
0,048508 
0,077612 
0,107868 
0,118063 
0,108197 
0,076626 
0,043410 
0,027131 
0,020390 
0,015786 
0,010524 
0,018910 
0,009208 
0,010195 
0,009702 
0,010359 
0,011181 
0,009208 
0,010524 
0,015950 
0,015292 
0,057880 
0,022527 
0,010359 
0,011181 
-0,189755 
0,750963 
0,702127 
-0,081065 
-0,033873 
-0,002302 
0,010359 
0,009866 
0,039464 
0,053276 
0,074488 
0,108690 
0,118227 
0,103592 
0,070048 
0,039628 
0,020718 
-0,000164 
0,009866 
0,020718 
0,019732 
0,015786 
0,015621 
0,016279 
0,010524 
0,016279 
0,010524 
0,015457 
0,015457 
0,030749 
0,049823 
0,024994 
0,019403 
0,021541 
-0,185809 
0,804404 
0,723668 
-0,081065 
-0,049659 
-0,026474 
-0,022034 
-0,013155 
-0,000329 
0,019896 
0,030913 
0,068404 
0,085012 
0,077777 
0,037819 
0,015457 
0,004111 
-0,004275 
-0,006906 
-0,002302 
0,004111 
0,002960 
0,003124 
0,005426 
0,002302 
-0,012661 
0,003124 
0,005262 
0,010524 
0,011675 
0,029598 
-0,000822 
0,009702 
-0,007399 
-0,127764 
1,140997 
0,280851 
-0,095864 
-0,038806 
-0,031078 
-0,012661 
0,000164 
-0,008550 
0,010359 
0,031900 
0,064129 
0,085012 
0,077941 
0,041437 
0,010524 
0,002302 
-0,002631 
-0,002302 
0,002960 
0,010853 
-0,002631 
0,009702 
0,007399 
0,015128 
0,010195 
0,010359 
0,010688 
0,011675 
0,030420 
0,030256 
-0,012990 
0,001809 
-0,112965 
0,176272 
1,164676 
-0,054098 
-0,095206 
-0,030913 
-0,029269 
-0,016608 
-0,006577 
-0,002466 
0,018745 
0,047192 
0,083203 
0,074324 
0,049987 
0,026803 
-0,001644 
-0,011839 
-0,011839 
-0,007399 
-0,008879 
-0,002466 
-0,002466 
0,003453 
-0,002631 
0,006906 
0,008057 
0,007728 
0,009866 
0,024172 
0,034860 
0,013483 
0,008386 
-0,000493 
-0,162953 
1,026059 
0,332647 
-0,099482 
-0,033215 
-0,010853 
-0,015292 
-0,007399 
0,008222 
0,015786 
0,043575 
0,070377 
0,079421 
0,069391 
0,027296 
-0,006248 
-0,010359 
-0,022198 
-0,014306 
-0,005755 
-0,007399 
-0,010853 
-0,001644 
-0,007399 
0,003124 
0,003124 
0,008222 
0,011017 
0,011346 
0,031242 
0,004604 
-0,007235 
-0,008057 
-0,209816 
0,789441 
0,596068 
-0,098331 
-0,054098 
-0,027954 
-0,015786 
-0,003782 
0,011017 
0,025158 
0,050481 
0,081065 
0,099153 
0,087807 
0,050974 
0,011181 
-0,006084 
-0,012004 
-0,012990 
-0,012332 
-0,005426 
-0,006906 
-0,001644 
0,010853 
0,009373 
0,001809 
0,002960 
0,012661 
0,004440 
0,032393 
0,031078 
0,009044 
0,016279 
-0,083532 
0,116254 
1,249523 
0,001809 
-0,089287 
-0,027625 
-0,021047 
-0,012990 
-0,004769 
0,010524 
0,044068 
0,065773 
0,098988 
0,093727 
0,069555 
0,027789 
0,014799 
-0,001644 
-0,001973 
0,006413 
0,001973 
0,007564 
0,017430 
0,010195 
0,008222 
0,003124 
0,002960 
0,011181 
0,010359 
0,020390 
0,023021 
0,033873 
0,007728 
0,003289 
-0,038971 
-0,068897 
1,271721 
0,122009 
-0,109019 
-0,031735 
-0,026803 
-0,016279 
-0,005426 
-0,001973 
0,021870 
0,040615 
0,073008 
0,087971 
0,067911 
0,031242 
0,006577 
-0,016279 
-0,015292 
-0,026145 
-0,011181 
-0,012990 
-0,005097 
-0,002466 
0,002631 
0,007893 
0,007399 
0,008550 
0,013648 
0,030584 
0,029762 
0,054427 
0,022363 
0,016443 
-0,028611 
-0,034860 
1,253140 
0,147825 
-0,073666 
-0,012004 
-0,007235 
0,006906 
0,007728 
0,015621 
0,018745 
0,047028 
0,089945 
0,089122 
0,072186 
0,032558 
0,006413 
-0,000822 
0,007564 
0,010195 
0,007399 
0,011510 
0,011510 
0,010195 
0,010524 
0,007235 
0,010359 
0,009702 
0,011839 
0,015621 
0,036175 
0,015950 
-0,001973 
-0,004933 
-0,189920 
0,883825 
0,458438 
-0,112472 
-0,045219 
-0,021870 
-0,015292 
-0,002795 
-0,004604 
0,012990 
0,031735 
0,073666 
0,097508 
0,079421 
0,043739 
0,009373 
-0,006084 
-0,016279 
-0,005426 
0,002960 
-0,001151 
0,007564 
0,009208 
0,015128 
0,002631 
-0,007235 
-0,007399 
-0,007399 
-0,000493 
0,023021 
0,019403 
-0,006084 
-0,005426 
-0,082052 
0,064951 
1,200029 
0,016114 
-0,088794 
-0,011181 
-0,001973 
-0,006906 
0,012661 
0,023514 
0,040122 
0,070048 
0,112965 
0,108032 
0,080079 
0,043903 
0,001973 
0,007071 
-0,001644 
-0,001973 
0,000658 
0,009537 
-0,001644 
-0,002302 
0,001973 
-0,027131 
-0,004275 
0,019403 
0,029433 
0,025158 
0,049165 
0,028118 
0,002138 
-0,019567 
-0,201594 
1,054999 
0,250595 
-0,137959 
-0,059196 
-0,021047 
-0,015786 
-0,016443 
0,005591 
0,010524 
0,044068 
0,081723 
0,088958 
0,076954 
0,035189 
-0,003124 
-0,063964 
-0,089945 
-0,106717 
-0,114938 
-0,114774 
-0,110992 
-0,090273 
-0,085176 
-0,073666 
-0,060676 
-0,053441 
-0,046370 
-0,027296 
-0,020390 
0,003782 
-0,008879 
0,002302 
0,003124 
-0,134670 
1,120114 
0,327221 
-0,083861 
-0,020225 
0,002960 
0,010030 
0,017430 
0,026145 
0,041273 
0,073501 
0,107868 
0,122338 
0,105401 
0,069226 
0,038971 
0,008222 
0,004111 
-0,001973 
0,017101 
0,011675 
0,019732 
0,021212 
0,031900 
0,018910 
0,012168 
0,010688 
0,009866 
0,024500 
0,029105 
0,049823 
0,023185 
0,007071 
0,004440 
-0,160979 
1,020304 
0,453669 
-0,090109 
-0,021870 
-0,012004 
-0,007399 
-0,011181 
0,008222 
0,017594 
0,054920 
0,081559 
0,103592 
0,083532 
0,056565 
0,020390 
0,007728 
-0,001973 
0,003782 
0,009702 
0,010195 
0,015621 
0,020225 
0,016772 
0,016114 
0,013648 
0,007564 
0,013977 
0,025651 
0,029598 
0,034695 
0,009208 
0,000822 
-0,105895 
0,149140 
1,205290 
-0,031571 
-0,084189 
