-0,047025 
-0,036009 
0,000164 
0,035022 
-0,003124 
-0,023677 
-0,041764 
-0,036995 
-0,040284 
0,635665 
0,614947 
0,031076 
-0,005426 
-0,023019 
-0,014305 
0,000493 
0,028939 
0,061001 
0,097997 
0,145680 
0,234140 
0,344962 
0,436547 
0,478804 
0,402675 
0,220000 
0,076786 
0,016278 
0,001809 
0,001973 
0,007070 
0,007235 
-0,003782 
-0,014963 
-0,023184 
-0,027952 
-0,026637 
-0,028939 
-0,018416 
0,020717 
0,045546 
0,013812 
-0,008221 
-0,027788 
-0,027623 
-0,033049 
0,738759 
0,561674 
0,036338 
-0,002960 
-0,018251 
-0,007564 
0,011016 
0,034365 
0,063961 
0,097997 
0,154888 
0,243512 
0,354992 
0,452496 
0,495739 
0,406457 
0,210792 
0,075635 
0,016442 
-0,003124 
0,001809 
0,006084 
0,009865 
-0,003124 
-0,019238 
-0,027459 
-0,037160 
-0,037324 
-0,037324 
-0,036502 
-0,002138 
0,030583 
-0,008386 
-0,027788 
-0,042586 
-0,043244 
-0,049163 
0,717548 
0,567100 
0,020224 
-0,015949 
-0,032720 
-0,033214 
-0,012990 
0,015949 
0,046861 
0,082212 
0,136143 
0,220986 
0,326547 
0,423393 
0,466143 
0,387055 
0,209805 
0,065112 
0,007399 
-0,008057 
-0,008714 
-0,008221 
-0,013318 
-0,017100 
-0,031241 
-0,037324 
-0,042257 
-0,042257 
-0,046861 
-0,032392 
0,006084 
0,021375 
-0,008550 
-0,028281 
-0,042421 
-0,042421 
-0,038146 
0,963527 
0,284783 
-0,012990 
-0,024828 
-0,034365 
-0,022526 
0,000164 
0,030254 
0,061001 
0,100957 
0,158341 
0,243841 
0,348744 
0,432765 
0,460224 
0,354170 
0,188266 
0,062975 
0,014798 
0,007399 
0,006906 
0,001315 
-0,003782 
-0,018087 
-0,031569 
-0,037489 
-0,037818 
-0,041928 
-0,038475 
-0,014963 
0,029925 
0,009372 
-0,014140 
-0,036995 
-0,037324 
-0,041928 
0,185142 
0,940343 
0,089611 
-0,006248 
-0,027623 
-0,028281 
-0,012332 
0,012990 
0,044230 
0,077937 
0,124469 
0,190897 
0,284290 
0,385411 
0,449043 
0,435560 
0,280508 
0,119208 
0,032392 
0,007235 
0,001644 
0,002631 
-0,004275 
-0,012825 
-0,027623 
-0,031734 
-0,042257 
-0,043408 
-0,047519 
-0,032392 
0,005755 
0,027459 
-0,009043 
-0,031898 
-0,041928 
-0,037324 
-0,040942 
0,785948 
0,387548 
-0,000329 
-0,013976 
-0,022691 
-0,010030 
0,008057 
0,040613 
0,072676 
0,109178 
0,165411 
0,248938 
0,359432 
0,445426 
0,476337 
0,386397 
0,203228 
0,074649 
0,024664 
0,011510 
0,010852 
0,011016 
0,002466 
-0,007728 
-0,018087 
-0,033214 
-0,038146 
-0,037160 
-0,037324 
-0,023513 
0,019895 
0,021540 
-0,003124 
-0,033049 
-0,036831 
-0,037818 
-0,013812 
1,141763 
0,235949 
0,009372 
-0,016607 
-0,022855 
-0,012661 
0,011345 
0,036995 
0,069058 
0,111973 
0,180209 
0,272780 
0,387877 
0,468774 
0,483408 
0,346607 
0,157354 
0,050972 
0,008879 
0,001973 
0,004604 
0,006413 
0,005097 
-0,003124 
-0,013647 
-0,027788 
-0,027788 
-0,036502 
-0,037489 
-0,020224 
0,020553 
0,015456 
-0,010852 
-0,038475 
-0,037818 
-0,041928 
0,008714 
1,170866 
0,186293 
0,001973 
-0,026966 
-0,028281 
-0,018251 
0,001809 
0,027294 
0,064125 
0,101450 
0,167713 
0,254036 
0,362391 
0,445754 
0,458251 
0,324574 
0,141898 
0,039297 
0,001151 
-0,007728 
-0,003617 
-0,007235 
-0,007728 
-0,021704 
-0,031898 
-0,043572 
-0,041928 
-0,046861 
-0,042093 
-0,012990 
0,031898 
0,001644 
-0,023184 
-0,047190 
-0,046697 
-0,049656 
0,320299 
0,815874 
0,050972 
-0,019566 
-0,046697 
-0,038146 
-0,018087 
0,008057 
0,035516 
0,075142 
0,123647 
0,192212 
0,294813 
0,396427 
0,443288 
0,396263 
0,224604 
0,078924 
0,018909 
-0,002960 
-0,006906 
-0,007728 
-0,013318 
-0,027623 
-0,042093 
-0,047190 
-0,052616 
-0,051794 
-0,050478 
-0,031241 
0,011181 
0,009372 
-0,022855 
-0,046697 
-0,051629 
-0,051300 
-0,024499 
1,067936 
0,190403 
-0,018909 
-0,032556 
-0,042257 
-0,026801 
-0,002795 
0,026801 
0,061330 
0,096188 
0,153079 
0,239566 
0,345127 
0,417145 
0,435560 
0,316024 
0,147982 
0,031405 
-0,005426 
-0,008550 
-0,013154 
-0,013318 
-0,026308 
-0,040448 
-0,051629 
-0,057220 
-0,062152 
-0,057549 
-0,047025 
-0,004111 
0,021211 
-0,019402 
-0,041106 
-0,046532 
-0,057220 
-0,057055 
0,746980 
0,447234 
-0,003946 
-0,033543 
-0,047025 
-0,037324 
-0,016936 
0,014305 
0,050972 
0,087638 
0,143707 
0,229208 
0,322272 
0,419940 
0,451838 
0,366995 
0,208326 
0,059357 
0,008221 
0,001480 
0,001480 
-0,001480 
-0,008221 
-0,017758 
-0,024006 
-0,032720 
-0,037160 
-0,037324 
-0,031241 
-0,002138 
0,036009 
0,020717 
0,001480 
-0,027788 
-0,027459 
-0,032392 
0,232825 
1,067278 
0,106383 
0,016771 
-0,012496 
-0,008057 
0,002466 
0,025815 
0,054918 
0,088460 
0,135321 
0,201091 
0,302870 
0,413856 
0,478639 
0,471569 
0,301719 
0,110986 
0,031734 
0,006741 
0,007728 
0,011181 
0,007235 
0,000987 
-0,009372 
-0,017429 
-0,027130 
-0,032063 
-0,032063 
-0,025486 
0,011510 
0,035845 
0,004275 
-0,022362 
-0,032392 
-0,035516 
-0,041599 
0,741718 
0,539805 
0,025157 
-0,013647 
-0,032392 
-0,022691 
-0,004768 
0,016607 
0,049492 
0,091913 
0,147160 
0,229536 
0,334110 
0,423393 
0,464334 
0,397907 
0,209312 
0,074813 
0,011510 
0,000658 
-0,002631 
-0,003453 
-0,008550 
-0,017429 
-0,027294 
-0,032392 
-0,032885 
-0,037324 
-0,036502 
-0,015456 
0,028117 
0,028281 
-0,003288 
-0,028117 
-0,032556 
-0,036995 
0,037818 
1,097204 
0,136143 
-0,007235 
-0,022855 
-0,022526 
-0,011510 
0,012003 
0,040942 
0,081883 
0,123318 
0,203064 
0,283139 
0,383766 
0,450194 
0,445097 
0,302376 
0,133677 
0,044559 
0,015620 
0,005755 
0,006413 
0,001151 
-0,013154 
-0,031569 
-0,042750 
-0,047683 
-0,052123 
-0,049163 
-0,032885 
0,007235 
0,020553 
-0,013154 
-0,037324 
-0,042257 
-0,048012 
-0,036173 
0,988519 
0,287085 
-0,020224 
-0,027788 
-0,038311 
-0,027459 
-0,004604 
0,022197 
0,050807 
0,094380 
0,152915 
0,233154 
0,337892 
0,420433 
0,434574 
0,317832 
0,144858 
0,040777 
0,003617 
-0,008057 
-0,008221 
-0,018251 
-0,042421 
-0,037818 
-0,046039 
-0,051629 
-0,051958 
-0,052123 
-0,041764 
-0,002960 
0,024499 
-0,011345 
-0,037324 
-0,046861 
-0,047190 
-0,048670 
0,847772 
0,386562 
-0,005919 
-0,029268 
-0,041764 
-0,030583 
-0,009043 
0,018251 
0,050972 
0,089447 
0,145844 
0,224439 
0,330986 
0,418131 
0,448550 
0,361240 
0,197474 
0,069058 
0,017593 
0,001644 
0,001644 
0,001973 
-0,006577 
-0,018416 
-0,027623 
-0,031898 
-0,032556 
-0,033707 
-0,027294 
-0,001151 
0,037982 
0,013483 
-0,008550 
-0,032227 
-0,027294 
-0,033871 
0,284290 
0,972077 
0,088625 
0,011345 
-0,013154 
-0,003288 
0,011345 
0,037160 
0,065605 
0,102108 
0,152421 
0,224439 
0,331315 
0,434245 
0,483243 
0,445919 
0,267190 
0,103752 
0,037489 
0,011181 
0,012003 
0,011345 
0,011016 
0,000987 
-0,013976 
-0,022197 
-0,026308 
-0,032720 
-0,029432 
-0,022033 
0,022197 
0,041106 
0,006741 
-0,020389 
-0,027459 
-0,027130 
-0,031898 
0,910418 
0,416651 
0,022197 
-0,012332 
-0,028281 
-0,019566 
0,001315 
0,029596 
0,057549 
0,099477 
0,161794 
0,252391 
0,363542 
0,447234 
0,475680 
0,370941 
0,177743 
0,063468 
0,020224 
0,006248 
0,011181 
0,002138 
-0,004439 
-0,015785 
-0,028939 
-0,037653 
-0,042257 
-0,041764 
-0,036995 
-0,008386 
0,029925 
0,013318 
-0,010359 
-0,035187 
-0,037324 
-0,037160 
0,173139 
1,008414 
0,096682 
-0,003453 
-0,029761 
-0,025815 
-0,009537 
0,018251 
0,046697 
0,085336 
0,130882 
0,200433 
0,307802 
0,402018 
0,451345 
0,420762 
0,259462 
0,105889 
0,038804 
0,011181 
0,006413 
0,007399 
0,001809 
-0,014140 
-0,027623 
-0,037818 
-0,038475 
-0,041599 
-0,042257 
-0,022691 
0,021540 
0,018580 
-0,007070 
-0,030912 
-0,037982 
-0,042586 
0,020717 
1,091942 
0,195665 
-0,008057 
-0,022691 
-0,023184 
-0,012167 
0,012332 
0,039955 
0,071196 
0,113946 
0,171823 
0,256338 
0,368475 
0,432600 
0,434738 
0,300568 
0,133019 
0,046697 
0,015949 
0,005755 
0,006248 
-0,002795 
-0,017758 
-0,028445 
-0,037818 
-0,042586 
-0,042093 
-0,042915 
-0,028281 
0,013318 
0,020553 
-0,013647 
-0,035351 
-0,037818 
-0,041106 
-0,030912 
0,997234 
0,263079 
-0,008221 
-0,028610 
-0,031898 
-0,018251 
0,005097 
0,036173 
0,065112 
0,106218 
0,163109 
0,249432 
0,355979 
0,433587 
0,453153 
0,328191 
0,152257 
0,054753 
0,016278 
0,006413 
0,005262 
0,003946 
-0,004768 
-0,017593 
-0,022855 
-0,027294 
-0,027952 
-0,031569 
-0,020389 
0,011839 
0,037982 
0,006084 
-0,013318 
-0,028281 
-0,026966 
-0,030912 
0,858295 
0,466965 
0,034694 
0,006413 
-0,013318 
0,001480 
0,021211 
0,052451 
0,078430 
0,120523 
0,171001 
0,255187 
0,364035 
0,455291 
0,486367 
0,400044 
0,205695 
0,080404 
0,027623 
0,010030 
0,011510 
0,011674 
0,006577 
-0,005919 
-0,017922 
-0,026966 
-0,022362 
-0,032556 
-0,032392 
-0,009865 
0,030912 
0,021211 
-0,001151 
-0,027623 
-0,028117 
-0,036995 
0,080732 
1,202271 
0,154394 
0,010688 
-0,023184 
-0,023184 
-0,012825 
0,012167 
0,038969 
0,071360 
0,115261 
0,178400 
0,275411 
0,386890 
0,459730 
0,451674 
0,300074 
0,119865 
0,024993 
0,001480 
-0,004768 
-0,003288 
-0,006906 
-0,012990 
-0,022526 
-0,037489 
-0,038640 
-0,041764 
-0,044066 
-0,041435 
-0,005262 
0,028117 
-0,001973 
-0,027294 
-0,041764 
-0,047354 
-0,052616 
0,546382 
0,644215 
0,023184 
-0,015291 
-0,037982 
-0,028117 
-0,008221 
0,018909 
0,048176 
0,089118 
0,141405 
0,217533 
0,325231 
0,410403 
0,446741 
0,378012 
0,202406 
0,068401 
0,015949 
0,001809 
-0,002631 
-0,003124 
-0,012167 
-0,026308 
-0,038475 
-0,053109 
-0,051136 
-0,052451 
-0,052287 
-0,033543 
0,014305 
0,005097 
-0,027294 
-0,047519 
-0,048012 
-0,046861 
0,079253 
1,032749 
0,108191 
-0,012661 
-0,044066 
-0,042257 
-0,024993 
0,004275 
0,033871 
0,069058 
0,113946 
0,177085 
0,273109 
0,371928 
0,427997 
0,412870 
0,262586 
0,099806 
0,026143 
0,000987 
-0,008386 
-0,007728 
-0,017922 
-0,029103 
-0,042257 
-0,051794 
-0,051794 
-0,056726 
-0,052945 
-0,038804 
0,012332 
0,012332 
-0,018087 
-0,042915 
-0,041764 
-0,047190 
-0,008221 
1,062839 
0,201255 
-0,012990 
-0,038311 
-0,041271 
-0,028117 
-0,003288 
0,028939 
0,064619 
0,104409 
0,164918 
0,252063 
0,353512 
0,422406 
0,435889 
0,306651 
0,130389 
0,037160 
0,001973 
-0,002631 
-0,008057 
-0,008550 
-0,018087 
-0,032392 
-0,046039 
-0,047025 
-0,046697 
-0,046039 
-0,038146 
0,007399 
0,027788 
-0,004604 
-0,030254 
-0,037324 
-0,042915 
-0,045546 
1,009072 
0,308953 
-0,005426 
-0,017758 
-0,026966 
-0,015456 
0,005426 
0,036831 
0,070045 
0,113453 
0,169193 
0,253049 
0,370119 
0,452167 
0,478146 
0,374065 
0,191226 
0,066592 
0,016278 
0,006084 
0,006741 
0,006741 
0,002138 
-0,011345 
-0,021375 
-0,027294 
-0,031569 
-0,032227 
-0,032720 
-0,006577 
0,031076 
0,013976 
-0,006084 
-0,026966 
-0,026637 
-0,032392 
0,101450 
1,182211 
0,127922 
0,014963 
-0,015785 
-0,014634 
-0,003288 
0,022362 
0,053602 
0,088954 
0,128415 
0,196816 
0,301225 
0,413692 
0,479461 
0,473542 
0,306158 
0,130389 
0,042750 
0,007399 
0,006413 
0,009865 
0,006741 
0,001315 
-0,013483 
-0,028281 
-0,031898 
-0,032720 
-0,038804 
-0,032720 
0,001315 
0,037160 
0,006577 
-0,019402 
-0,041928 
-0,043244 
-0,051300 
0,474693 
0,705380 
0,035022 
-0,015785 
-0,037818 
-0,032063 
-0,012661 
0,014963 
0,048341 
0,084514 
0,135650 
0,210792 
0,311420 
0,407444 
0,447563 
0,380478 
0,200927 
0,068729 
0,015127 
0,001151 
-0,003617 
-0,003124 
-0,012167 
-0,022691 
-0,032885 
-0,041928 
-0,046861 
-0,047190 
-0,048670 
-0,031569 
0,016936 
0,008386 
-0,017758 
-0,039791 
-0,041764 
-0,047354 
0,024664 
1,078459 
0,151270 
-0,012825 
-0,040942 
-0,037160 
-0,024006 
0,004111 
0,031076 
0,068894 
0,110822 
0,176098 
0,269163 
0,367160 
0,429805 
0,421913 
0,277055 
0,114604 
0,033543 
0,000164 
-0,009372 
-0,008057 
-0,013976 
-0,022855 
-0,032720 
-0,041928 
-0,047025 
-0,046861 
-0,052287 
-0,033871 
0,003453 
0,020553 
-0,013318 
-0,041271 
-0,047847 
-0,047519 
-0,044723 
0,923736 
0,320956 
-0,013318 
-0,028610 
-0,041599 
-0,037324 
-0,009865 
0,022197 
0,051629 
0,092571 
0,147982 
0,230194 
0,337728 
0,417638 
0,439835 
0,345620 
0,173139 
0,049327 
0,001973 
-0,007892 
-0,008221 
-0,012825 
-0,018416 
-0,032556 
-0,042421 
-0,051958 
-0,051958 
-0,053109 
-0,047190 
-0,013318 
0,029596 
-0,008057 
-0,030254 
-0,042915 
-0,041928 
-0,043408 
0,526322 
0,691898 
0,035022 
-0,015127 
-0,031076 
-0,023019 
-0,002302 
0,024499 
0,057055 
0,093229 
0,144529 
0,221644 
0,322107 
0,424873 
0,474364 
0,422242 
0,240553 
0,089447 
0,021211 
0,001809 
0,001480 
0,006084 
0,006413 
-0,003288 
-0,012661 
-0,023348 
-0,027459 
-0,027952 
-0,028445 
-0,011674 
0,022691 
0,038640 
0,011016 
-0,010852 
-0,017265 
-0,028281 
-0,019566 
1,015485 
0,385411 
0,021540 
0,000329 
-0,012167 
-0,004439 
0,020389 
0,048176 
0,077115 
0,109178 
0,170179 
0,257160 
0,373572 
0,466636 
0,501165 
0,380314 
0,186293 
0,068401 
0,020060 
0,006577 
0,007235 
0,011016 
0,006741 
-0,002795 
-0,018087 
-0,026801 
-0,031898 
-0,033214 
-0,034036 
-0,024006 
0,022855 
0,020717 
-0,007728 
-0,037160 
-0,034694 
-0,042421 
0,029761 
1,136337 
0,148804 
-0,002960 
-0,032063 
-0,033543 
-0,022526 
0,006084 
0,034036 
0,066592 
0,108356 
0,171495 
0,266532 
0,372914 
0,441315 
0,453811 
0,314544 
0,144693 
0,043079 
0,007070 
-0,002960 
-0,002138 
-0,003782 
-0,008879 
-0,021211 
-0,035351 
-0,038146 
-0,042093 
-0,041928 
-0,037489 
-0,006248 
0,026637 
-0,005262 
-0,028117 
-0,036995 
-0,040448 
-0,042586 
0,557070 
0,616920 
0,025321 
-0,016442 
-0,037160 
-0,027623 
-0,007728 
0,015620 
0,050149 
0,082048 
0,123976 
0,201584 
0,301061 
0,394454 
0,439342 
0,390672 
0,214738 
0,068401 
0,005097 
-0,014469 
-0,012990 
-0,012990 
-0,018087 
-0,028610 
-0,042257 
-0,056069 
-0,055082 
-0,052123 
-0,051465 
-0,037818 
0,007892 
0,008386 
-0,019238 
-0,042586 
-0,048834 
-0,056891 
-0,020553 
1,080761 
0,228879 
-0,012661 
-0,037160 
-0,042257 
-0,031569 
-0,006413 
0,021375 
0,056891 
0,103423 
0,159492 
0,250254 
0,357130 
0,428983 
0,437862 
0,308131 
0,130553 
0,032720 
-0,005097 
-0,007728 
-0,006413 
-0,007728 
-0,017593 
-0,033871 
-0,042093 
-0,041599 
-0,051465 
-0,048505 
-0,041435 
-0,003124 
0,030419 
-0,004111 
-0,022197 
-0,037489 
-0,041928 
-0,041928 
0,687294 
0,527802 
0,016114 
-0,010688 
-0,027788 
-0,012990 
0,008057 
0,035351 
0,065441 
0,100628 
0,157519 
0,236442 
0,346771 
0,443617 
0,480612 
0,406457 
0,223124 
0,079746 
0,020882 
0,006577 
0,006413 
0,009701 
0,006906 
-0,002466 
-0,018251 
-0,027788 
-0,032720 
-0,032720 
-0,032556 
-0,019238 
0,017265 
0,039297 
0,006413 
-0,015291 
-0,027294 
-0,023513 
-0,029925 
0,948893 
0,440000 
0,024335 
-0,010359 
-0,018909 
-0,008221 
0,015291 
0,043572 
0,074978 
0,118221 
0,173303 
0,264559 
0,382944 
0,471569 
0,496233 
0,378340 
0,185142 
0,062975 
0,015456 
0,007235 
0,011510 
0,011345 
0,006413 
-0,003782 
-0,021046 
-0,029761 
-0,038640 
-0,037160 
-0,037818 
-0,027623 
0,012332 
0,028939 
-0,003124 
-0,027294 
-0,035022 
-0,037324 
-0,033049 
1,010388 
0,340852 
-0,000329 
-0,024828 
-0,027130 
-0,021868 
0,000164 
0,023348 
0,057384 
0,094051 
0,155217 
0,238086 
0,340030 
0,432929 
0,463841 
0,367324 
0,166726 
0,049656 
0,006084 
-0,007399 
-0,003453 
-0,002631 
-0,007728 
-0,018416 
-0,032227 
-0,043079 
-0,044723 
-0,051629 
-0,046697 
-0,028281 
0,018580 
0,014634 
-0,013318 
-0,036831 
-0,042093 
-0,043408 
-0,011016 
1,091284 
0,131539 
-0,017100 
-0,041435 
-0,042421 
-0,029268 
-0,005919 
0,021540 
0,055411 
0,091584 
0,155545 
0,243841 
0,354828 
0,419940 
0,431614 
0,292840 
0,116412 
0,014305 
-0,013483 
-0,017922 
-0,013483 
-0,012661 
-0,025321 
-0,037653 
-0,048012 
-0,054589 
-0,061330 
-0,062481 
-0,057384 
-0,028774 
0,020224 
-0,012167 
-0,035845 
-0,056398 
-0,062152 
-0,058371 
0,265381 
0,835276 
0,054096 
-0,026801 
-0,057055 
-0,045546 
-0,034529 
-0,005755 
0,021540 
0,058371 
0,101614 
0,172481 
0,276233 
0,379491 
0,434574 
0,408594 
0,248281 
0,081554 
0,006906 
-0,016771 
-0,017265 
-0,012990 
-0,014798 
-0,027788 
-0,035680 
-0,047025 
-0,051958 
-0,052287 
-0,057877 
-0,044559 
-0,002138 
0,020717 
-0,017922 
-0,040777 
-0,046697 
-0,046532 
-0,044723 
0,898743 
0,384589 
0,005262 
-0,022691 
-0,033049 
-0,022526 
0,000822 
0,024993 
0,057877 
0,095859 
0,154066 
0,238909 
0,348086 
0,448550 
0,475186 
0,375710 
0,188430 
0,057055 
0,010523 
0,001480 
0,003946 
0,011674 
0,009372 
-0,003782 
-0,014305 
-0,022691 
-0,027623 
-0,032556 
-0,033049 
-0,014798 
0,020060 
0,038146 
0,010523 
-0,013483 
-0,027788 
-0,026143 
-0,019073 
1,000193 
0,388699 
0,025321 
-0,002960 
-0,013154 
-0,003617 
0,018416 
0,045217 
0,079581 
0,115755 
0,170015 
0,256338 
0,373737 
0,473049 
0,507907 
0,402511 
0,204379 
0,075635 
0,023842 
0,006577 
0,010359 
0,016114 
0,010523 
0,004768 
-0,004275 
-0,017429 
-0,017758 
-0,022526 
-0,022197 
-0,015127 
0,018909 
0,039626 
0,011510 
-0,010359 
-0,027459 
-0,027952 
-0,025321 
0,916337 
0,429312 
0,022855 
-0,005426 
-0,014634 
-0,007564 
0,010523 
0,035022 
0,068729 
0,104409 
0,155381 
0,240717 
0,354170 
0,450852 
0,485710 
0,400044 
0,214738 
0,079417 
0,023184 
0,010852 
0,011510 
0,011016 
0,006906 
-0,001644 
-0,015456 
-0,022362 
-0,032063 
-0,029268 
-0,032885 
-0,017265 
0,017429 
0,037160 
0,006906 
-0,023184 
-0,030254 
-0,032720 
-0,022362 
1,020911 
0,271958 
-0,007892 
-0,021046 
-0,022033 
-0,013483 
0,010688 
0,036995 
0,065605 
0,104903 
0,162122 
0,245814 
0,358281 
0,438684 
0,465979 
0,353841 
0,178400 
0,054918 
0,008714 
-0,002960 
0,001315 
0,001315 
-0,006413 
-0,021704 
-0,032063 
-0,037653 
-0,038146 
-0,037324 
-0,036831 
-0,018909 
0,027788 
0,031898 
-0,003288 
-0,027459 
-0,032392 
-0,036667 
-0,002960 
1,092106 
0,222466 
0,001315 
-0,017100 
-0,022197 
-0,006413 
0,016771 
0,048012 
0,078595 
0,122167 
0,182675 
0,276562 
0,380642 
0,455620 
0,456442 
0,320627 
0,146667 
0,048834 
0,010359 
0,006413 
0,007070 
0,006413 
-0,002466 
-0,017922 
-0,028610 
-0,032556 
-0,037324 
-0,037818 
-0,032556 
-0,004933 
0,032720 
0,010523 
-0,007399 
-0,027788 
-0,030747 
-0,032556 
0,112302 
0,977503 
0,125785 
0,010852 
-0,012661 
-0,013154 
-0,003453 
0,026143 
0,057384 
0,091420 
0,135815 
0,199611 
0,302705 
0,410732 
0,477488 
0,462032 
0,299581 
0,129073 
0,043244 
0,011345 
0,011181 
0,010688 
0,011016 
-0,002631 
-0,012825 
-0,022526 
-0,032556 
-0,032720 
-0,037489 
-0,036667 
-0,006741 
0,029596 
0,018744 
-0,007399 
-0,030254 
-0,033543 
-0,032720 
0,127758 
1,167248 
0,122003 
0,006741 
-0,022362 
-0,022033 
-0,008057 
0,020224 
0,054096 
0,083856 
0,129073 
0,200269 
0,306651 
0,417473 
0,490149 
0,475680 
0,305336 
0,126936 
0,034694 
0,002466 
0,001809 
0,010030 
0,011016 
0,006413 
-0,005590 
-0,013976 
-0,017922 
-0,022197 
-0,027459 
-0,027788 
-0,009043 
0,026637 
0,026308 
0,001644 
-0,028774 
-0,032392 
-0,036831 
0,006413 
1,169222 
0,146831 
0,001644 
-0,031405 
-0,027130 
-0,014798 
0,011016 
0,038475 
0,068729 
0,107040 
0,167220 
0,264888 
0,383273 
0,463019 
0,469596 
0,320299 
0,140912 
0,037324 
0,001315 
-0,003288 
0,001809 
0,000987 
-0,004604 
-0,017758 
-0,032720 
-0,041599 
-0,041435 
-0,036995 
-0,042093 
-0,022855 
0,012990 
0,025157 
-0,003288 
-0,030912 
-0,032063 
-0,041764 
0,020224 
1,106247 
0,174454 
-0,008221 
-0,031734 
-0,032720 
-0,017265 
0,004439 
0,033214 
0,062646 
0,109507 
0,169850 
0,266532 
0,371106 
0,446577 
0,454633 
0,306158 
0,134335 
0,038475 
0,003288 
0,002138 
0,001315 
0,001809 
-0,008057 
-0,021046 
-0,030254 
-0,037653 
-0,043079 
-0,036009 
-0,032392 
-0,011674 
0,036338 
0,018251 
-0,003617 
-0,028117 
-0,027788 
-0,033049 
0,145844 
1,009730 
0,118057 
0,008221 
-0,022526 
-0,018087 
-0,005097 
0,020882 
0,049821 
0,089118 
0,132033 
0,202406 
0,289058 
0,402511 
0,459895 
0,447892 
0,289387 
0,116412 
0,040942 
0,010852 
0,005426 
0,006413 
0,005919 
-0,008386 
-0,023348 
-0,032556 
-0,037489 
-0,041764 
-0,042257 
-0,036009 
-0,006906 
0,030747 
-0,001809 
-0,022691 
-0,037324 
-0,040448 
-0,042093 
0,504289 
0,635665 
0,033707 
-0,010523 
-0,031898 
-0,024335 
-0,004439 
0,025157 
0,055411 
0,089447 
0,146009 
0,209641 
0,324574 
0,424379 
0,470747 
0,420926 
0,244170 
0,089282 
0,024170 
0,000493 
0,006741 
0,011510 
0,006248 
-0,007399 
-0,017265 
-0,027459 
-0,031241 
-0,027459 
-0,027788 
-0,021704 
0,008221 
0,040448 
0,008879 
-0,015127 
-0,027459 
-0,028117 
-0,036995 
0,528295 
0,755037 
0,055082 
0,002138 
-0,012990 
-0,009208 
0,011839 
0,038146 
0,066263 
0,102272 
0,153079 
0,233318 
0,350059 
0,453976 
0,504947 
0,434245 
0,241046 
0,088625 
0,023019 
0,001644 
0,001480 
0,011016 
0,010852 
0,005590 
-0,006413 
-0,023842 
-0,023348 
-0,022526 
-0,032392 
-0,032885 
-0,000329 
0,035351 
0,013483 
-0,010194 
-0,036667 
-0,031734 
-0,033378 
0,281659 
0,967144 
0,081883 
0,003946 
-0,030583 
-0,023184 
-0,005755 
0,021046 
0,049327 
0,080732 
0,126936 
0,199776 
0,302870 
0,416980 
0,480941 
0,422571 
0,245650 
0,088789 
0,021540 
-0,005590 
-0,003124 
0,002466 
0,001973 
-0,008057 
-0,020882 
-0,032227 
-0,037653 
-0,042257 
-0,041928 
-0,033049 
-0,012496 
0,029761 
0,003782 
-0,016936 
-0,035187 
-0,037489 
-0,043408 
0,332795 
0,880657 
0,060179 
-0,007564 
-0,032720 
-0,032392 
-0,015949 
0,007728 
0,037489 
0,073991 
0,126278 
0,195994 
0,301225 
0,403497 
0,454962 
0,415500 
0,242855 
0,087967 
0,018087 
-0,003946 
-0,007399 
-0,002138 
-0,007892 
-0,015291 
-0,032556 
-0,041764 
-0,048341 
-0,052287 
-0,052780 
-0,049163 
-0,017265 
0,025321 
-0,013483 
-0,030254 
-0,047519 
-0,046861 
-0,051629 
0,383438 
0,757174 
0,036173 
-0,016936 
-0,036995 
-0,036338 
-0,020389 
0,008221 
0,035845 
0,071196 
0,119865 
0,193856 
0,294155 
0,395769 
0,445919 
0,391494 
0,217369 
0,068236 
-0,000164 
-0,012990 
-0,012332 
-0,008386 
-0,012990 
-0,027130 
-0,041928 
-0,050972 
-0,052287 
-0,046532 
-0,047025 
-0,036995 
-0,001644 
0,027952 
-0,008550 
-0,028774 
-0,042093 
-0,044230 
-0,046039 
0,671673 
0,549013 
0,016278 
-0,015291 
-0,032392 
-0,023513 
-0,003782 
0,023184 
0,056069 
0,092900 
0,143707 
0,224439 
0,341016 
0,437040 
0,467952 
0,389521 
0,208326 
0,071525 
0,017100 
0,001809 
0,007399 
0,006906 
0,001480 
-0,011674 
-0,022855 
-0,022362 
-0,027459 
-0,033378 
-0,035680 
-0,027788 
0,005919 
0,040613 
0,007728 
-0,017265 
-0,026801 
-0,026966 
-0,035351 
0,571539 
0,769835 
0,051300 
-0,002795 
-0,022033 
-0,003453 
0,006084 
0,035680 
0,065441 
0,107040 
0,158505 
0,240882 
0,360418 
0,459237 
0,500672 
0,428819 
0,241211 
0,085994 
0,022197 
0,006741 
0,010852 
0,016114 
0,011016 
0,001809 
-0,008057 
-0,018251 
-0,028281 
-0,032392 
-0,032720 
-0,032063 
-0,001973 
0,036667 
0,011839 
-0,005097 
-0,030254 
-0,028774 
-0,036995 
0,181524 
1,120716 
0,099312 
-0,002302 
-0,034036 
-0,032227 
-0,013483 
0,011674 
0,037653 
0,074978 
0,126113 
0,197638 
0,303198 
0,408430 
0,466307 
0,432929 
0,269163 
0,102601 
0,021704 
-0,008221 
-0,008221 
-0,007728 
-0,003617 
-0,015291 
-0,027788 
-0,034200 
-0,037653 
-0,042750 
-0,046532 
-0,041435 
-0,016607 
0,024499 
0,008386 
-0,013154 
-0,037653 
-0,036995 
-0,037160 
0,087803 
1,074184 
0,114110 
-0,004933 
-0,032227 
-0,031734 
-0,017922 
0,007399 
0,038640 
0,077279 
0,119208 
0,180209 
0,274260 
0,379820 
0,448385 
0,443452 
0,299252 
0,126936 
0,037489 
0,001809 
-0,003124 
-0,007892 
-0,009043 
-0,017922 
-0,032392 
-0,042586 
-0,047354 
-0,048505 
-0,051794 
-0,047025 
-0,021211 
0,025650 
-0,001973 
-0,022197 
-0,045217 
-0,040777 
-0,045217 
0,186950 
0,968624 
0,086487 
-0,012990 
-0,042586 
-0,032227 
-0,023184 
0,005590 
0,034529 
0,068236 
0,112631 
0,178236 
0,285605 
0,384589 
0,438520 
0,413856 
0,245814 
0,084843 
0,011674 
-0,012825 
-0,013318 
-0,015949 
-0,012825 
-0,027952 
-0,041106 
-0,047025 
-0,052451 
-0,060837 
-0,057220 
-0,049656 
-0,010523 
0,025979 
-0,007728 
-0,031898 
-0,046697 
-0,051958 
-0,057384 
0,525829 
0,640104 
0,018251 
-0,028939 
-0,047190 
-0,041106 
-0,021868 
0,008714 
0,039791 
0,077937 
0,125291 
0,203722 
0,306816 
0,411390 
0,455455 
0,390179 
0,211779 
0,069551 
0,008386 
-0,006577 
-0,002795 
-0,003288 
-0,006906 
-0,018744 
-0,032720 
-0,037653 
-0,037489 
-0,037818 
-0,038311 
-0,024170 
0,014634 
0,035845 
0,002960 
-0,021704 
-0,029432 
-0,032885 
-0,028445 
0,905156 
0,455455 
0,033543 
-0,005755 
-0,017593 
-0,003617 
0,021375 
0,046861 
0,082048 
0,118550 
0,174783 
0,256173 
0,371435 
0,467458 
0,502152 
0,393961 
0,200762 
0,076457 
0,022197 
0,005590 
0,007070 
0,010523 
0,014469 
0,001315 
-0,008057 
-0,018416 
-0,018909 
-0,023184 
-0,022855 
-0,015456 
0,019073 
0,040613 
0,015620 
-0,010194 
-0,022526 
-0,023842 
-0,028117 
0,929984 
0,439506 
0,023019 
-0,004439 
-0,017429 
-0,012825 
0,010030 
0,034529 
0,071031 
0,103587 
0,166069 
0,246965 
0,361569 
0,451838 
0,486038 
0,393467 
0,204215 
0,078266 
0,015949 
0,002302 
0,002795 
0,006577 
0,001480 
-0,009372 
-0,017593 
-0,027459 
-0,031734 
-0,032885 
-0,032063 
-0,019895 
0,020553 
0,037653 
0,005097 
-0,021704 
-0,027294 
-0,033049 
-0,032392 
0,910911 
0,382944 
0,013318 
-0,008221 
-0,023019 
-0,013318 
0,007399 
0,035022 
0,071525 
0,109013 
0,162945 
0,243512 
0,351539 
0,435560 
0,460717 
0,362720 
0,182675 
0,062481 
0,014798 
0,001644 
0,000329 
-0,001809 
-0,012825 
-0,022197 
-0,032885 
-0,036995 
-0,042586 
-0,042093 
-0,042421 
-0,021211 
0,020224 
0,012332 
-0,011345 
-0,035516 
-0,037160 
-0,041928 
0,048505 
1,087338 
0,172810 
-0,002631 
-0,028117 
-0,031076 
-0,015785 
0,009043 
0,043079 
0,074649 
0,117563 
0,184155 
0,273109 
0,382451 
0,445919 
0,448056 
0,310269 
0,134992 
0,043901 
0,010194 
0,006906 
0,001644 
0,001480 
-0,013154 
-0,024664 
-0,032392 
-0,037982 
-0,042257 
-0,037653 
-0,026143 
0,010359 
0,040777 
0,005755 
-0,015291 
-0,027459 
-0,031076 
-0,035022 
0,653258 
0,535530 
0,036173 
-0,002631 
-0,022855 
-0,012332 
0,006906 
0,036502 
0,062481 
0,108684 
0,158998 
0,242690 
0,345456 
0,436382 
0,469925 
0,394454 
0,216054 
0,084514 
0,030912 
0,011674 
0,011181 
0,011016 
0,003124 
-0,009701 
-0,023513 
-0,029432 
-0,032556 
-0,032556 
-0,027623 
-0,008057 
0,027459 
0,025486 
0,001315 
-0,022197 
-0,022691 
-0,022855 
0,029103 
1,183526 
0,203393 
0,021211 
-0,002960 
-0,005426 
0,004933 
0,030254 
0,058042 
0,096846 
0,137788 
0,200598 
0,301061 
0,412376 
0,482421 
0,486532 
0,338385 
0,153572 
0,051629 
0,016607 
0,009372 
0,015785 
0,015456 
0,005919 
-0,003617 
-0,017593 
-0,022691 
-0,027952 
-0,031569 
-0,032227 
-0,005590 
0,029925 
0,026472 
0,001809 
-0,023184 
-0,027623 
-0,026801 
0,042915 
1,216411 
0,175934 
0,021046 
-0,016442 
-0,017922 
-0,003288 
0,019566 
0,042421 
0,074484 
0,115755 
0,179551 
0,271136 
0,381793 
0,454798 
0,458415 
0,303363 
0,122496 
0,031734 
-0,000164 
0,002302 
0,000658 
-0,002960 
-0,013318 
-0,022197 
-0,037160 
-0,047519 
-0,042421 
-0,044230 
-0,042421 
-0,018580 
0,028774 
0,016278 
-0,010852 
-0,033049 
-0,035022 
-0,039955 
0,067578 
1,089476 
0,127758 
-0,007728 
-0,027952 
-0,027130 
-0,017593 
0,009208 
0,041928 
0,077608 
0,121016 
0,185635 
0,280837 
0,381464 
0,446248 
0,427339 
0,274589 
0,103094 
0,028445 
0,000164 
-0,002631 
-0,002795 
-0,008550 
-0,022362 
-0,033707 
-0,044888 
-0,051300 
-0,056891 
-0,052287 
-0,046697 
-0,013812 
0,029761 
0,001151 
-0,021375 
-0,040613 
-0,042750 
-0,047190 
0,323587 
0,795321 
0,047847 
-0,017593 
-0,040120 
-0,033049 
-0,013812 
0,009865 
0,041764 
0,076293 
0,122989 
0,187608 
0,303363 
0,393961 
0,442301 
0,407279 
0,259955 
0,091584 
0,020060 
0,002302 
0,002138 
-0,003617 
-0,015456 
-0,023348 
-0,037160 
-0,037653 
-0,036995 
-0,042257 
-0,036831 
-0,024006 
0,012167 
0,046368 
0,003946 
-0,018909 
-0,037653 
-0,037489 
-0,042257 
0,741061 
0,485381 
0,028445 
0,001315 
-0,011674 
-0,007564 
0,011016 
0,038475 
0,065276 
0,102765 
0,151270 
0,231016 
0,335097 
0,423228 
0,461210 
0,377354 
0,205202 
0,076457 
0,019895 
0,001480 
0,001973 
0,000987 
-0,008386 
-0,023019 
-0,032063 
-0,047190 
-0,046697 
-0,047025 
-0,047847 
-0,030090 
0,016771 
0,027294 
0,000000 
-0,028117 
-0,031898 
-0,037818 
-0,004275 
1,140283 
0,225426 
-0,001644 
-0,017100 
-0,023019 
-0,006413 
0,013812 
0,046697 
0,083199 
0,126771 
0,189088 
0,276233 
0,388206 
0,470418 
0,493109 
0,366502 
0,185800 
0,065112 
0,026143 
0,010852 
0,010852 
0,016114 
0,006413 
-0,002960 
-0,019566 
-0,026637 
-0,032720 
-0,032720 
-0,032392 
-0,016114 
0,019073 
0,040120 
0,006741 
-0,018744 
-0,028117 
-0,027294 
-0,022197 
1,049521 
0,366666 
0,035516 
-0,002302 
-0,012825 
-0,002795 
0,010852 
0,036995 
0,067743 
0,094873 
0,155710 
0,240882 
0,351375 
0,449372 
0,485545 
0,387219 
0,187279 
0,057877 
0,015456 
0,000658 
0,002631 
0,001480 
-0,007235 
-0,018251 
-0,033543 
-0,037324 
-0,042586 
-0,047025 
-0,042257 
-0,036502 
0,004439 
0,036009 
-0,002795 
-0,023513 
-0,031405 
-0,037653 
-0,038804 
0,856980 
0,415007 
0,004439 
-0,014305 
-0,027459 
-0,018580 
0,002631 
0,028117 
0,066263 
0,097504 
0,150777 
0,230194 
0,335426 
0,427174 
0,456606 
0,381464 
0,199447 
0,074155 
0,021540 
0,006413 
0,006248 
0,002302 
-0,008221 
-0,021868 
-0,033707 
-0,041928 
-0,042586 
-0,042421 
-0,041928 
-0,027623 
0,015291 
0,028939 
-0,002302 
-0,029268 
-0,037653 
-0,041928 
-0,037489 
0,954977 
0,322272 
-0,006906 
-0,027459 
-0,032720 
-0,022526 
-0,000164 
0,029103 
0,060344 
0,099477 
0,150777 
0,236935 
0,339536 
0,416158 
0,446577 
0,358281 
0,183498 
0,063797 
0,018087 
0,001809 
-0,004275 
-0,008221 
-0,017429 
-0,032227 
-0,042093 
-0,047025 
-0,046368 
-0,047190 
-0,041106 
-0,025321 
0,015291 
0,023513 
-0,008714 
-0,032556 
-0,036667 
-0,037489 
-0,028939 
1,061359 
0,239566 
0,002138 
-0,019566 
-0,022362 
-0,013647 
0,006084 
0,035680 
0,066756 
0,100792 
0,162780 
0,256009 
0,353677 
0,430134 
0,446412 
0,325725 
0,147982 
0,046861 
0,006577 
0,002138 
0,001644 
-0,004439 
-0,012661 
-0,024170 
-0,035351 
-0,040777 
-0,042093 
-0,040284 
-0,037160 
-0,011839 
0,030747 
0,017593 
-0,010194 
-0,032227 
-0,037160 
-0,035516 
0,136308 
1,121703 
0,135321 
0,011345 
-0,015456 
-0,018087 
0,000329 
0,022033 
0,054918 
0,086652 
0,132526 
0,198789 
0,296457 
0,404648 
0,467294 
0,467623 
0,317668 
0,135979 
0,040448 
0,007728 
0,000987 
0,007728 
0,003453 
-0,002960 
-0,012990 
-0,018416 
-0,023184 
-0,032392 
-0,027788 
-0,027788 
-0,006413 
0,029596 
0,033871 
0,002960 
-0,022691 
-0,022526 
-0,022691 
0,013976 
1,190432 
0,238251 
0,025321 
-0,003288 
-0,007728 
0,004933 
0,024335 
0,054096 
0,087638 
0,129073 
0,185142 
0,287907 
0,401524 
0,475680 
0,487025 
0,344798 
0,171823 
0,058371 
0,010523 
0,007728 
0,006906 
0,001973 
-0,003124 
-0,008550 
-0,027459 
-0,028117 
-0,031898 
-0,032392 
-0,027788 
-0,013647 
0,027130 
0,040284 
0,006577 
-0,021704 
-0,032720 
-0,037489 
-0,031898 
0,967637 
0,324245 
0,000658 
-0,010359 
-0,027294 
-0,017758 
0,003288 
0,034036 
0,066592 
0,112466 
0,170837 
0,246308 
0,349731 
0,432107 
0,461046 
0,356143 
0,174783 
0,059522 
0,011674 
-0,000329 
-0,004604 
-0,007892 
-0,017922 
-0,032227 
-0,042421 
-0,047190 
-0,042257 
-0,042421 
-0,046203 
-0,032227 
0,005426 
0,027788 
-0,012003 
-0,037982 
-0,047354 
-0,048012 
-0,056726 
0,979147 
0,297115 
-0,013318 
-0,033378 
-0,038146 
-0,032720 
-0,013812 
0,018744 
0,050149 
0,087803 
0,145187 
0,229043 
0,333124 
0,409417 
0,441808 
0,346607 
0,173139 
0,056726 
0,012990 
0,001480 
-0,007892 
-0,010359 
-0,024335 
-0,034365 
-0,047847 
-0,051629 
-0,052123 
-0,052123 
-0,052616 
-0,033049 
0,003782 
0,019895 
-0,012332 
-0,034365 
-0,042421 
-0,047190 
-0,026637 
1,053960 
0,229208 
-0,009537 
-0,032063 
-0,031898 
-0,022033 
0,003124 
0,029925 
0,063797 
0,100628 
0,161958 
0,245979 
0,346113 
0,425530 
0,446412 
0,332137 
0,155710 
0,049985 
0,002960 
-0,003453 
-0,003124 
-0,006577 
-0,012825 
-0,027952 
-0,037324 
-0,042750 
-0,038475 
-0,037324 
-0,032227 
-0,018909 
0,023184 
0,030254 
-0,002466 
-0,023677 
-0,027130 
-0,037324 
0,012825 
1,147517 
0,208490 
0,001151 
-0,012167 
-0,012661 
0,000329 
0,025486 
0,054424 
0,090927 
0,142720 
0,204215 
0,297279 
0,408759 
0,477982 
0,493109 
0,355979 
0,177743 
0,070374 
0,028281 
0,015291 
0,015785 
0,006413 
0,001809 
-0,003453 
-0,015456 
-0,026472 
-0,032556 
-0,032720 
-0,033378 
-0,018087 
0,017100 
0,040613 
0,012825 
-0,008386 
-0,022197 
-0,023019 
-0,024335 
0,865859 
0,478804 
0,035680 
0,003288 
-0,007070 
-0,003782 
0,015127 
0,037324 
0,072676 
0,114933 
0,166891 
0,250583 
0,359267 
0,454798 
0,495411 
0,411390 
0,215560 
0,078266 
0,027459 
0,006084 
0,008221 
0,006577 
0,000164 
-0,010523 
-0,022033 
-0,036338 
-0,037489 
-0,041928 
-0,042257 
-0,038475 
-0,011016 
0,031076 
0,008221 
-0,011839 
-0,037653 
-0,039626 
-0,047025 
0,429805 
0,879835 
0,046697 
-0,012332 
-0,032392 
-0,028117 
-0,008714 
0,011839 
0,046368 
0,080239 
0,129073 
0,199611 
0,302376 
0,405964 
0,453482 
0,418296 
0,246143 
0,090762 
0,021375 
-0,003453 
-0,002795 
-0,008550 
-0,012167 
-0,026637 
-0,041271 
-0,046532 
-0,060508 
-0,061659 
-0,062317 
-0,056562 
-0,030747 
0,018580 
-0,004439 
-0,028117 
-0,048834 
-0,051794 
-0,050643 
0,326876 
0,787264 
0,038475 
-0,030254 
-0,055904 
-0,047354 
-0,030090 
0,000987 
0,029103 
0,060179 
0,107205 
0,175276 
0,273438 
0,372750 
0,430463 
0,404484 
0,246801 
0,088131 
0,007235 
-0,019731 
-0,022197 
-0,025815 
-0,031898 
-0,042093 
-0,061001 
-0,067085 
-0,066099 
-0,072018 
-0,072018 
-0,065605 
-0,038640 
0,013483 
-0,012825 
-0,039955 
-0,061166 
-0,061166 
-0,067250 
0,209641 
0,871449 
0,046039 
-0,032392 
-0,056398 
-0,051629 
-0,034200 
-0,004439 
0,026472 
0,055740 
0,106876 
0,172810 
0,275740 
0,374394 
0,430792 
0,416322 
0,263737 
0,085665 
0,008714 
-0,014469 
-0,017429 
-0,012496 
-0,017758 
-0,028610 
-0,037489 
-0,047025 
-0,052287 
-0,047683 
-0,044559 
-0,039626 
-0,011016 
0,029103 
0,008714 
-0,008386 
-0,032720 
-0,032392 
-0,035187 
0,249925 
0,969117 
0,096353 
0,008714 
-0,017429 
-0,012003 
0,006577 
0,035516 
0,058864 
0,094544 
0,142391 
0,210134 
0,311749 
0,422077 
0,490149 
0,474035 
0,305007 
0,136637 
0,047683 
0,017758 
0,009208 
0,014963 
0,016278 
0,003782 
-0,004111 
-0,012825 
-0,017758 
-0,026637 
-0,027952 
-0,027459 
-0,004933 
0,031569 
0,046039 
0,013647 
-0,008057 
-0,017265 
-0,017593 
0,004604 
1,165604 
0,278206 
0,030419 
-0,002466 
-0,002795 
0,005097 
0,031076 
0,060837 
0,097010 
0,134006 
0,195007 
0,289387 
0,409088 
0,489985 
0,511853 
0,383438 
0,190075 
0,062975 
0,016607 
0,011345 
0,009865 
0,016114 
0,009372 
-0,000987 
-0,012332 
-0,026308 
-0,032556 
-0,032720 
-0,032720 
-0,028939 
0,004768 
0,040448 
0,008714 
-0,013976 
-0,026801 
-0,032063 
-0,034858 
0,763258 
0,511195 
0,023842 
-0,007399 
-0,022197 
-0,017758 
0,001973 
0,024664 
0,056398 
0,098490 
0,148640 
0,225261 
0,334604 
0,417309 
0,470911 
0,416322 
0,223453 
0,082048 
0,019073 
-0,003288 
-0,001809 
-0,002631 
-0,007892 
-0,020060 
-0,029268 
-0,041435 
-0,052287 
-0,046532 
-0,046861 
-0,043244 
-0,013318 
0,029925 
0,001644 
-0,022526 
-0,042093 
-0,042915 
-0,042093 
0,388206 
0,747144 
0,045546 
-0,012003 
-0,037324 
-0,032063 
-0,013318 
0,015620 
0,043737 
0,075635 
0,122825 
0,195994 
0,296786 
0,398565 
0,447563 
0,411554 
0,239237 
0,091749 
0,014634 
-0,003453 
-0,003782 
-0,001809 
-0,008386 
-0,017429 
-0,032556 
-0,047683 
-0,046368 
-0,051794 
-0,046861 
-0,041599 
-0,010359 
0,030419 
0,001644 
-0,022691 
-0,041928 
-0,041599 
-0,046368 
0,355321 
0,767040 
0,049492 
-0,017100 
-0,041435 
-0,030747 
-0,013812 
0,011016 
0,041764 
0,078102 
0,119865 
0,196980 
0,294813 
0,397414 
0,454140 
0,427503 
0,254693 
0,091584 
0,012496 
-0,008057 
-0,008221 
-0,008221 
-0,007564 
-0,020882 
-0,031405 
-0,040448 
-0,047519 
-0,046697 
-0,047683 
-0,040284 
-0,012496 
0,035845 
0,006906 
-0,016936 
-0,036338 
-0,037324 
-0,036338 
0,372257 
0,863392 
0,072018 
0,002138 
-0,026472 
-0,018416 
-0,001644 
0,021704 
0,055082 
0,090598 
0,138281 
0,208490 
0,316024 
0,424215 
0,484230 
0,448221 
0,276233 
0,105067 
0,024335 
-0,006906 
-0,003124 
0,007728 
0,007070 
0,000987 
-0,007892 
-0,017758 
-0,022855 
-0,026966 
-0,022855 
-0,023348 
0,000822 
0,032392 
0,034694 
0,011839 
-0,012825 
-0,017265 
-0,022691 
0,023184 
1,218220 
0,216382 
0,020389 
-0,008550 
-0,008057 
-0,000493 
0,024828 
0,051794 
0,085501 
0,126278 
0,185800 
0,282810 
0,402018 
0,490478 
0,507414 
0,367982 
0,166891 
0,054424 
0,008386 
0,002138 
0,002302 
0,006741 
0,001480 
-0,003124 
-0,012990 
-0,027623 
-0,032556 
-0,034036 
-0,032720 
-0,028445 
0,006906 
0,041435 
0,007564 
-0,017429 
-0,027952 
-0,028939 
-0,037818 
0,639611 
0,618564 
0,027294 
-0,003782 
-0,023348 
-0,017100 
0,002466 
0,025486 
0,059522 
0,092900 
0,145351 
0,225426 
0,333781 
0,436053 
0,482421 
0,419940 
0,240388 
0,088460 
0,016771 
0,002138 
0,001480 
0,004933 
0,002138 
-0,006248 
-0,018251 
-0,027623 
-0,032063 
-0,032063 
-0,032063 
-0,027130 
-0,002466 
0,044066 
0,011510 
-0,011510 
-0,033543 
-0,032392 
-0,039133 
0,375545 
0,788579 
0,057220 
-0,003946 
-0,021704 
-0,018087 
-0,002138 
0,023842 
0,059686 
0,092900 
0,136143 
0,212107 
0,308296 
0,414843 
0,470911 
0,427339 
0,256009 
0,098490 
0,026472 
0,002138 
0,005262 
0,006741 
0,007070 
-0,003453 
-0,018251 
-0,027459 
-0,029103 
-0,027623 
-0,028445 
-0,020553 
0,010030 
0,048505 
0,019895 
0,001151 
-0,018087 
-0,017758 
-0,025979 
0,286263 
1,019924 
0,091420 
0,003453 
-0,017429 
-0,007070 
0,007399 
0,031405 
0,061988 
0,102601 
0,150284 
0,216054 
0,317503 
0,422899 
0,481928 
0,454469 
0,289387 
0,124963 
0,042586 
0,014305 
0,004933 
0,011510 
0,007235 
-0,004933 
-0,012990 
-0,027459 
-0,033049 
-0,037489 
-0,037818 
-0,031569 
0,004111 
0,040613 
0,016278 
-0,008221 
-0,022197 
-0,025321 
-0,032556 
0,391001 
0,837413 
0,073662 
0,008879 
-0,008057 
-0,003124 
0,011181 
0,040613 
0,069551 
0,104245 
0,147324 
0,221808 
0,328520 
0,440000 
0,501165 
0,468938 
0,294813 
0,106218 
0,029268 
0,007564 
0,007564 
0,016114 
0,021211 
0,010194 
-0,008221 
-0,012825 
-0,017593 
-0,027623 
-0,027952 
-0,026472 
-0,006084 
0,035845 
0,030254 
0,006741 
-0,019402 
-0,023513 
-0,027459 
0,076622 
1,232032 
0,183004 
0,021211 
-0,017100 
-0,012990 
-0,001809 
0,020224 
0,044888 
0,076786 
0,119372 
0,181360 
0,280508 
0,404319 
0,491793 
0,496890 
0,334768 
0,146667 
0,044395 
0,004933 
-0,003124 
0,000329 
0,001480 
0,000658 
-0,009043 
-0,017429 
-0,027294 
-0,032392 
-0,033049 
-0,030419 
-0,023348 
0,015949 
0,040448 
0,005590 
-0,020882 
-0,032392 
-0,037818 
-0,035187 
0,911404 
0,394125 
0,010852 
-0,022526 
-0,032392 
-0,022855 
-0,003288 
0,025321 
0,049821 
0,091256 
0,143542 
0,227728 
0,341838 
0,437369 
0,466307 
0,375874 
0,194514 
0,058864 
-0,000987 
-0,007728 
-0,008879 
-0,003124 
-0,012825 
-0,022526 
-0,031569 
-0,036667 
-0,042586 
-0,042257 
-0,047190 
-0,036995 
-0,006741 
0,028939 
-0,008714 
-0,027952 
-0,042093 
-0,046532 
-0,042586 
0,611823 
0,456113 
0,014140 
-0,021704 
-0,037489 
-0,026637 
-0,008714 
0,018251 
0,050149 
0,078430 
0,133019 
0,222466 
0,326876 
0,422899 
0,460881 
0,380971 
0,196816 
0,061988 
0,006741 
-0,008386 
-0,007892 
-0,009372 
-0,017100 
-0,027788 
-0,041928 
-0,049327 
-0,051465 
-0,047683 
-0,043408 
-0,042750 
-0,008221 
0,017922 
-0,012990 
-0,036667 
-0,047519 
-0,052451 
-0,054589 
0,785455 
0,426517 
0,000658 
-0,028774 
-0,047025 
-0,039791 
-0,017758 
0,010030 
0,040613 
0,078102 
0,130389 
0,213258 
0,331973 
0,421748 
0,452167 
0,365844 
0,187937 
0,053931 
0,001809 
-0,009043 
-0,009372 
-0,007235 
-0,012332 
-0,022691 
-0,040448 
-0,052123 
-0,048012 
-0,047190 
-0,051629 
-0,035516 
-0,000658 
0,028610 
-0,002795 
-0,027459 
-0,037818 
-0,037324 
-0,043572 
0,759147 
0,363542 
0,011674 
-0,013318 
-0,022197 
-0,009372 
0,010688 
0,035516 
0,065276 
0,098819 
0,154230 
0,241211 
0,349073 
0,448550 
0,490971 
0,398565 
0,207010 
0,070702 
0,019073 
0,000822 
0,001644 
0,006413 
0,006741 
-0,003124 
-0,015785 
-0,022691 
-0,027130 
-0,022526 
-0,022526 
-0,012990 
0,022033 
0,054753 
0,025650 
0,007564 
-0,012661 
-0,017758 
-0,017758 
0,417145 
0,949715 
0,092900 
0,012496 
-0,007728 
0,000164 
0,013318 
0,039791 
0,073004 
0,104409 
0,147160 
0,234962 
0,346278 
0,457429 
0,510702 
0,464992 
0,271958 
0,113453 
0,032227 
0,011016 
0,010688 
0,014634 
0,010688 
0,002138 
-0,008057 
-0,018580 
-0,027459 
-0,028117 
-0,032227 
-0,032720 
-0,010194 
0,033049 
0,032227 
0,001480 
-0,028774 
-0,032556 
-0,036338 
-0,005097 
1,150806 
0,200104 
0,001151 
-0,024170 
-0,026801 
-0,010359 
0,012003 
0,039791 
0,069716 
0,118386 
0,186457 
0,278864 
0,386890 
0,462032 
0,468281 
0,330329 
0,149133 
0,046532 
0,005590 
0,000658 
0,003124 
0,004275 
0,000164 
-0,013154 
-0,021868 
-0,033049 
-0,030583 
-0,032885 
-0,033543 
-0,013483 
0,024335 
0,034200 
0,001644 
-0,024828 
-0,028117 
-0,032885 
0,004604 
1,086023 
0,214409 
0,001151 
-0,018251 
-0,022855 
-0,013976 
0,011839 
0,038969 
0,073498 
0,112137 
0,173139 
0,258968 
0,362062 
0,434738 
0,459237 
0,346113 
0,169357 
0,060015 
0,014798 
0,006741 
0,001644 
0,001644 
-0,012990 
-0,027294 
-0,037489 
-0,047519 
-0,046861 
-0,048012 
-0,047025 
-0,033214 
0,008879 
0,026472 
-0,004111 
-0,029761 
-0,037489 
-0,047683 
-0,048176 
0,891016 
0,303856 
-0,006084 
-0,026472 
-0,035516 
-0,023677 
0,000329 
0,027952 
0,060015 
0,097339 
0,151928 
0,232167 
0,339536 
0,426517 
0,456935 
0,360583 
0,176098 
0,059522 
0,004111 
-0,008057 
-0,008386 
-0,003288 
-0,009537 
-0,026966 
-0,037489 
-0,047025 
-0,051629 
-0,051300 
-0,052616 
-0,032063 
0,011016 
0,024664 
-0,003453 
-0,025486 
-0,037160 
-0,036502 
-0,032720 
0,942316 
0,334275 
0,006741 
-0,007892 
-0,023184 
-0,013318 
0,009865 
0,033049 
0,069880 
0,107040 
0,163931 
0,243348 
0,365186 
0,454798 
0,479626 
0,379491 
0,192212 
0,068565 
0,013318 
0,001315 
0,006413 
0,006906 
0,002138 
-0,007892 
-0,018416 
-0,026637 
-0,027294 
-0,027788 
-0,028117 
-0,019895 
0,015456 
0,047190 
0,019895 
-0,000822 
-0,022197 
-0,022362 
-0,022526 
0,166397 
1,063826 
0,082212 
0,014469 
-0,012825 
-0,008386 
0,006413 
0,030090 
0,065605 
0,094873 
0,145680 
0,211450 
0,319148 
0,433751 
0,488505 
0,454633 
0,274589 
0,106547 
0,028281 
0,002138 
0,001151 
0,007070 
0,001151 
-0,003617 
-0,017758 
-0,027788 
-0,037324 
-0,037818 
-0,037160 
-0,037982 
-0,018416 
0,024335 
0,029103 
-0,003782 
-0,028774 
-0,034694 
-0,037489 
-0,011181 
1,107891 
0,242033 
0,002138 
-0,019566 
-0,027294 
-0,007728 
0,010852 
0,039297 
0,067414 
0,108027 
0,168042 
0,257160 
0,363707 
0,440986 
0,467787 
0,359432 
0,180538 
0,061166 
0,009865 
0,001644 
0,001973 
0,000658 
-0,008386 
-0,022362 
-0,032227 
-0,037489 
-0,042586 
-0,046697 
-0,046861 
-0,034694 
0,001644 
0,038311 
0,001973 
-0,016771 
-0,032227 
-0,037982 
-0,038969 
0,628759 
0,576472 
0,018580 
-0,012496 
-0,032392 
-0,025650 
-0,002631 
0,024006 
0,059850 
0,097832 
0,145187 
0,223782 
0,323258 
0,417638 
0,457264 
0,402182 
0,220657 
0,076457 
0,026966 
0,007564 
0,001480 
0,000493 
-0,012003 
-0,022526 
-0,035351 
-0,047190 
-0,046532 
-0,047190 
-0,047354 
-0,039133 
-0,008714 
0,031241 
-0,002302 
-0,021540 
-0,042257 
-0,043408 
-0,046532 
0,280508 
0,842181 
0,066921 
-0,007564 
-0,032556 
-0,029925 
-0,009043 
0,019731 
0,049821 
0,087474 
0,130224 
0,201584 
0,304678 
0,402018 
0,454304 
0,426517 
0,266039 
0,105067 
0,032227 
0,006741 
0,001151 
-0,002466 
-0,007728 
-0,019731 
-0,032392 
-0,042586 
-0,046861 
-0,053767 
-0,047025 
-0,042586 
-0,019402 
0,026966 
0,016771 
-0,007728 
-0,030912 
-0,033214 
-0,032556 
0,058206 
1,127458 
0,178729 
0,006906 
-0,018087 
-0,017922 
-0,001644 
0,029268 
0,051629 
0,086980 
0,133841 
0,188266 
0,280508 
0,393632 
0,473378 
0,488340 
0,360254 
0,176592 
0,069387 
0,029761 
0,012332 
0,010688 
0,005919 
-0,003288 
-0,008386 
-0,022197 
-0,029925 
-0,032556 
-0,032720 
-0,030747 
-0,022855 
0,007892 
0,044888 
0,023677 
-0,002138 
-0,018087 
-0,019238 
-0,020882 
0,245650 
1,070074 
0,109342 
0,021375 
-0,002960 
-0,002466 
0,009537 
0,032392 
0,067743 
0,100463 
0,145187 
0,219013 
0,319148 
0,426352 
0,496726 
0,489820 
0,329671 
0,156696 
0,050314 
0,020553 
0,009865 
0,011181 
0,004768 
-0,002960 
-0,012825 
-0,024828 
-0,031898 
-0,037160 
-0,037324 
-0,036995 
-0,032720 
0,001809 
0,030747 
-0,000822 
-0,017429 
-0,041435 
-0,037160 
-0,042093 
0,448878 
0,772959 
0,039462 
-0,007728 
-0,032720 
-0,024006 
-0,009701 
0,015620 
0,044066 
0,086158 
0,129073 
0,204051 
0,299910 
0,402675 
0,456278 
0,415829 
0,243512 
0,085665 
0,017100 
-0,003124 
-0,013483 
-0,007892 
-0,016771 
-0,024993 
-0,035680 
-0,050807 
-0,050807 
-0,052123 
-0,052451 
-0,048998 
-0,039297 
0,004111 
0,017758 
-0,015127 
-0,043244 
-0,046861 
-0,052287 
-0,041599 
0,995425 
0,265545 
-0,020882 
-0,031898 
-0,041928 
-0,033049 
-0,009043 
0,015620 
0,051465 
0,088131 
0,144693 
0,235291 
0,343482 
0,421913 
0,446412 
0,349402 
0,170508 
0,053438 
0,006248 
-0,006577 
-0,007070 
-0,013318 
-0,022033 
-0,037818 
-0,050478 
-0,057384 
-0,056398 
-0,056891 
-0,052616 
-0,047025 
-0,013154 
0,024993 
-0,002466 
-0,025486 
-0,042257 
-0,045710 
-0,051958 
0,250089 
0,862241 
0,066263 
-0,013812 
-0,037160 
-0,032063 
-0,014140 
0,016278 
0,046532 
0,083034 
0,126771 
0,198131 
0,307802 
0,407444 
0,456278 
0,422406 
0,254364 
0,097504 
0,025486 
0,003617 
-0,002795 
0,001809 
-0,004768 
-0,016278 
-0,028610 
-0,037489 
-0,042915 
-0,041764 
-0,042421 
-0,041764 
-0,020553 
0,022526 
0,027623 
-0,002466 
-0,022691 
-0,027788 
-0,022362 
0,038969 
1,127951 
0,191719 
0,015785 
-0,008386 
-0,009043 
0,001973 
0,028610 
0,055740 
0,089611 
0,127264 
0,195665 
0,281330 
0,394290 
0,472556 
0,492615 
0,368804 
0,190239 
0,074649 
0,029925 
0,012825 
0,006741 
0,006906 
0,002138 
-0,008057 
-0,017922 
-0,022197 
-0,027623 
-0,028445 
-0,032556 
-0,026472 
0,010852 
0,048176 
0,022033 
0,001644 
-0,017922 
-0,016936 
-0,019238 
0,221151 
1,102465 
0,115261 
0,025815 
-0,003617 
-0,002795 
0,010030 
0,033049 
0,064948 
0,102108 
0,149133 
0,223453 
0,319148 
0,432929 
0,497219 
0,482092 
0,313886 
0,134992 
0,047519 
0,016278 
0,011674 
0,016278 
0,012003 
0,002631 
-0,009043 
-0,025157 
-0,037160 
-0,036831 
-0,037489 
-0,036831 
-0,031405 
0,001644 
0,030912 
0,003617 
-0,021211 
-0,032885 
-0,036667 
-0,037324 
0,630732 
0,622511 
0,030090 
-0,004439 
-0,022855 
-0,017593 
-0,002631 
0,024664 
0,056069 
0,092900 
0,140912 
0,218520 
0,328520 
0,426188 
0,475844 
0,414514 
0,239566 
0,087967 
0,028281 
0,006248 
0,006577 
0,005919 
0,001480 
-0,012661 
-0,022362 
-0,027952 
-0,032556 
-0,032720 
-0,032063 
-0,027294 
-0,011510 
0,033707 
0,034858 
0,001973 
-0,022691 
-0,027130 
-0,030583 
0,077279 
1,096382 
0,149462 
0,003124 
-0,017265 
-0,018416 
-0,004604 
0,017100 
0,046368 
0,081883 
0,123976 
0,184977 
0,276233 
0,388041 
0,454304 
0,460388 
0,332137 
0,158834 
0,056891 
0,018580 
0,006741 
0,006413 
0,002466 
-0,006577 
-0,020060 
-0,032720 
-0,037324 
-0,036831 
-0,037653 
-0,032392 
-0,020553 
0,021540 
0,041599 
0,005262 
-0,017265 
-0,025815 
-0,023184 
-0,020389 
0,969282 
0,326382 
0,010852 
-0,008386 
-0,018251 
-0,007728 
0,012990 
0,041106 
0,066427 
0,107698 
0,162451 
0,243348 
0,351868 
0,436875 
0,467294 
0,383438 
0,209970 
0,083528 
0,026637 
0,006741 
0,000822 
-0,003288 
-0,006906 
-0,017593 
-0,030912 
-0,040120 
-0,042093 
-0,042915 
-0,037160 
-0,027623 
0,010852 
0,040284 
0,004275 
-0,021540 
-0,027294 
-0,035680 
-0,037818 
0,715739 
0,564633 
0,034694 
0,003124 
-0,013154 
-0,002795 
0,011510 
0,035845 
0,070374 
0,106383 
0,158176 
0,233318 
0,342989 
0,444439 
0,484723 
0,425695 
0,244828 
0,099641 
0,030747 
0,005590 
0,007070 
0,005755 
0,002795 
-0,008550 
-0,022033 
-0,028281 
-0,032063 
-0,032556 
-0,037324 
-0,031734 
-0,004439 
0,032885 
0,027130 
-0,002795 
-0,027130 
-0,022691 
-0,023019 
0,148146 
1,153601 
0,125949 
0,019238 
-0,013812 
-0,010359 
0,002960 
0,023677 
0,055904 
0,085830 
0,128251 
0,194678 
0,294155 
0,408594 
0,476008 
0,480284 
0,313228 
0,133184 
0,037982 
0,005755 
0,001480 
0,002631 
0,001973 
-0,005590 
-0,013483 
-0,024664 
-0,032227 
-0,037160 
-0,041764 
-0,037160 
-0,026143 
0,012003 
0,032063 
-0,000493 
-0,026308 
-0,037489 
-0,037160 
-0,039133 
0,780358 
0,475351 
0,008057 
-0,017429 
-0,032392 
-0,022526 
-0,005919 
0,024170 
0,054096 
0,085830 
0,143871 
0,223124 
0,330822 
0,427010 
0,470254 
0,397249 
0,216218 
0,070867 
0,012167 
-0,007399 
-0,005262 
-0,004768 
-0,012990 
-0,019238 
-0,029432 
-0,037160 
-0,041928 
-0,042750 
-0,042257 
-0,036831 
-0,008221 
0,032556 
0,005590 
-0,020882 
-0,037489 
-0,037324 
-0,041764 
0,429641 
0,747473 
0,046203 
-0,003288 
-0,027788 
-0,023019 
-0,002466 
0,026308 
0,055575 
0,091913 
0,141076 
0,213752 
0,315037 
0,412212 
0,462526 
0,423064 
0,253871 
0,102765 
0,040120 
0,011181 
0,001809 
0,001644 
-0,003946 
-0,017922 
-0,031569 
-0,042750 
-0,043408 
-0,046861 
-0,048176 
-0,036667 
-0,001315 
0,036667 
0,003453 
-0,018416 
-0,032063 
-0,037982 
-0,042421 
0,444439 
0,705052 
0,051465 
-0,005755 
-0,023019 
-0,020882 
-0,004604 
0,023842 
0,051465 
0,088789 
0,134499 
0,203064 
0,305336 
0,405142 
0,457593 
0,426681 
0,255351 
0,100134 
0,027459 
0,000822 
-0,003288 
-0,003453 
-0,007892 
-0,022855 
-0,031898 
-0,037653 
-0,040777 
-0,042093 
-0,045381 
-0,033871 
-0,005755 
0,041599 
0,003453 
-0,017100 
-0,038640 
-0,036995 
-0,036831 
0,486860 
0,731853 
0,053109 
0,007399 
-0,016936 
-0,009701 
0,005590 
0,029761 
0,064619 
0,097504 
0,149955 
0,220822 
0,327040 
0,430956 
0,478310 
0,433916 
0,255515 
0,101121 
0,025815 
0,007235 
0,006248 
0,005590 
0,006741 
-0,004275 
-0,017429 
-0,022691 
-0,022691 
-0,027623 
-0,029103 
-0,022691 
0,004933 
0,042915 
0,020224 
-0,001809 
-0,022691 
-0,022197 
-0,022855 
0,246965 
1,052480 
0,102272 
0,016278 
-0,012825 
-0,008057 
0,004439 
0,026637 
0,061330 
0,096517 
0,138445 
0,213587 
0,313722 
0,429805 
0,490971 
0,470254 
0,300403 
0,126113 
0,037818 
0,006906 
0,001480 
0,006906 
0,006084 
-0,001973 
-0,012990 
-0,023842 
-0,027623 
-0,032885 
-0,033049 
-0,037818 
-0,017100 
0,021375 
0,019895 
-0,009537 
-0,036009 
-0,037160 
-0,040613 
0,018580 
1,145873 
0,160314 
-0,008386 
-0,033049 
-0,037324 
-0,022033 
0,003288 
0,029925 
0,064290 
0,101779 
0,162616 
0,255844 
0,369955 
0,446905 
0,461375 
0,340852 
0,164589 
0,046861 
0,001973 
-0,002795 
-0,008550 
-0,013154 
-0,017593 
-0,029596 
-0,040777 
-0,046697 
-0,051794 
-0,051958 
-0,047190 
-0,029596 
0,012990 
0,016771 
-0,015291 
-0,037653 
-0,044395 
-0,047683 
-0,026143 
1,084543 
0,165246 
-0,012496 
-0,036338 
-0,041599 
-0,022526 
-0,003288 
0,032392 
0,062810 
0,107862 
0,169193 
0,257982 
0,366009 
0,436218 
0,446905 
0,318819 
0,148146 
0,046203 
0,011510 
-0,002795 
-0,003288 
-0,008057 
-0,018909 
-0,032556 
-0,046697 
-0,047683 
-0,051136 
-0,052123 
-0,050807 
-0,028117 
0,025486 
0,009208 
-0,015620 
-0,036995 
-0,040448 
-0,041928 
0,054260 
1,076322 
0,142885 
-0,002631 
-0,026801 
-0,028281 
-0,012825 
0,010194 
0,039955 
0,071525 
0,118057 
0,179880 
0,276562 
0,379656 
0,445261 
0,442466 
0,303198 
0,138445 
0,046039 
0,011181 
0,001809 
0,001809 
-0,003288 
-0,018416 
-0,027952 
-0,038475 
-0,042750 
-0,037324 
-0,041764 
-0,035022 
-0,008221 
0,039626 
0,002466 
-0,021046 
-0,032885 
-0,032556 
-0,032720 
0,425037 
0,752899 
0,059522 
0,010359 
-0,017429 
-0,012496 
0,012003 
0,034694 
0,073662 
0,114275 
0,150613 
0,222137 
0,329178 
0,426352 
0,486696 
0,455127 
0,287907 
0,123318 
0,050314 
0,022362 
0,016936 
0,011181 
0,006084 
-0,007564 
-0,017265 
-0,027294 
-0,032885 
-0,038311 
-0,032885 
-0,025979 
0,002466 
0,040120 
0,014634 
-0,003124 
-0,026966 
-0,022197 
-0,027294 
0,342331 
0,984737 
0,090762 
0,018580 
-0,019402 
-0,012990 
0,005590 
0,029432 
0,065770 
0,099641 
0,150284 
0,225919 
0,330164 
0,435396 
0,495246 
0,470418 
0,276562 
0,119536 
0,047190 
0,016278 
0,011345 
0,011181 
0,006741 
0,000658 
-0,012661 
-0,021211 
-0,027788 
-0,033871 
-0,037160 
-0,037653 
-0,015620 
0,025321 
0,020553 
-0,007070 
-0,031734 
-0,033049 
-0,033707 
0,126771 
1,136008 
0,120030 
0,006741 
-0,022033 
-0,022691 
-0,010852 
0,011016 
0,040613 
0,074813 
0,113124 
0,181196 
0,275411 
0,384095 
0,455784 
0,456113 
0,312735 
0,134006 
0,038146 
0,005097 
-0,003124 
-0,001973 
-0,002631 
-0,008057 
-0,023019 
-0,033378 
-0,041764 
-0,047025 
-0,047025 
-0,042915 
-0,018909 
0,033214 
0,012332 
-0,014469 
-0,041764 
-0,036667 
-0,037489 
0,117235 
1,035216 
0,110986 
-0,005426 
-0,032885 
-0,031898 
-0,017922 
0,006741 
0,037324 
0,074484 
0,121510 
0,186950 
0,277055 
0,375874 
0,438191 
0,431778 
0,289058 
0,120852 
0,034200 
0,001809 
-0,003782 
-0,006906 
-0,011345 
-0,019238 
-0,037653 
-0,048505 
-0,056069 
-0,057220 
-0,051629 
-0,055575 
-0,022197 
0,015949 
-0,006248 
-0,031076 
-0,058699 
-0,055740 
-0,057220 
0,126278 
0,851883 
0,060344 
-0,026472 
-0,053438 
-0,047025 
-0,029432 
-0,006413 
0,021211 
0,057055 
0,101943 
0,167713 
0,264394 
0,362391 
0,421420 
0,414843 
0,261435 
0,085830 
0,008221 
-0,012990 
-0,023019 
-0,020224 
-0,026143 
-0,037982 
-0,050807 
-0,061659 
-0,064125 
-0,067250 
-0,067414 
-0,057877 
-0,025157 
0,019238 
-0,013154 
-0,033707 
-0,052287 
-0,056891 
-0,057055 
0,399222 
0,746158 
0,037982 
-0,019731 
-0,042421 
-0,037324 
-0,018909 
0,009043 
0,047025 
0,078266 
0,126278 
0,192870 
0,299088 
0,397414 
0,448878 
0,406950 
0,226412 
0,082212 
0,015949 
0,001809 
-0,003288 
-0,003124 
-0,003124 
-0,017593 
-0,030747 
-0,037160 
-0,037160 
-0,037160 
-0,043079 
-0,032063 
0,003453 
0,036338 
0,015456 
-0,004439 
-0,027294 
-0,023348 
-0,033049 
0,446741 
0,809790 
0,063303 
0,008714 
-0,017922 
-0,012990 
0,005755 
0,030747 
0,064619 
0,103258 
0,150942 
0,225919 
0,339701 
0,441644 
0,497877 
0,461868 
0,272287 
0,110493 
0,039297 
0,015949 
0,011510 
0,009865 
0,008550 
-0,003617 
-0,013483 
-0,023184 
-0,032720 
-0,032392 
-0,039133 
-0,037324 
-0,009537 
0,026637 
0,011016 
-0,012825 
-0,037160 
-0,037489 
-0,039955 
0,146009 
1,107562 
0,104245 
0,003288 
-0,027952 
-0,026966 
-0,012167 
0,011181 
0,035187 
0,076128 
0,126442 
0,191226 
0,292511 
0,396098 
0,460717 
0,447399 
0,293333 
0,123154 
0,029596 
0,001644 
-0,003782 
0,001809 
0,001644 
-0,007728 
-0,017922 
-0,032063 
-0,037653 
-0,043079 
-0,042257 
-0,041928 
-0,014305 
0,027459 
0,008714 
-0,017593 
-0,037653 
-0,037324 
-0,038311 
0,242855 
0,899237 
0,076786 
-0,001973 
-0,027952 
-0,022691 
-0,007728 
0,016442 
0,042421 
0,082377 
0,124469 
0,183004 
0,295964 
0,397249 
0,459237 
0,447563 
0,289058 
0,137623 
0,046203 
0,013318 
0,011510 
0,006413 
0,001315 
-0,008386 
-0,022362 
-0,033378 
-0,036502 
-0,037489 
-0,034529 
-0,028774 
0,006084 
0,040448 
0,002960 
-0,020224 
-0,033871 
-0,032063 
-0,037489 
0,572361 
0,653587 
0,037818 
0,000658 
-0,022526 
-0,012990 
0,005426 
0,031241 
0,060015 
0,098819 
0,146173 
0,221480 
0,321121 
0,418953 
0,469925 
0,419611 
0,249925 
0,101614 
0,034200 
0,016442 
0,006577 
0,006741 
-0,002795 
-0,012167 
-0,024499 
-0,032392 
-0,042586 
-0,042915 
-0,037160 
-0,025650 
0,015127 
0,032720 
0,001644 
-0,027459 
-0,032392 
-0,035187 
-0,028774 
0,893646 
0,353019 
0,008386 
-0,014634 
-0,022526 
-0,011345 
0,006248 
0,035680 
0,066592 
0,109013 
0,158176 
0,239073 
0,346935 
0,436053 
0,470582 
0,367324 
0,186786 
0,063468 
0,018416 
0,004768 
0,007235 
0,006906 
0,002960 
-0,009372 
-0,023184 
-0,032227 
-0,032885 
-0,034529 
-0,037324 
-0,018909 
0,021868 
0,029925 
0,002302 
-0,023677 
-0,032556 
-0,032392 
-0,013154 
1,082405 
0,264230 
0,016114 
-0,012003 
-0,017265 
-0,003617 
0,010852 
0,043901 
0,073004 
0,110000 
0,169357 
0,260941 
0,375874 
0,470582 
0,495411 
0,386890 
0,188759 
0,068236 
0,015785 
0,005919 
0,006248 
0,013154 
0,010688 
0,002466 
-0,012990 
-0,022526 
-0,028117 
-0,030912 
-0,032392 
-0,022526 
0,012990 
0,031734 
-0,003288 
-0,026472 
-0,043408 
-0,041764 
-0,036502 
0,964349 
0,355650 
0,006906 
-0,020553 
-0,032720 
-0,022197 
-0,005919 
0,017265 
0,052945 
0,085172 
0,149626 
0,234469 
0,343318 
0,433751 
0,462526 
0,356308 
0,163273 
0,042257 
-0,003453 
-0,016607 
-0,018909 
-0,017593 
-0,022526 
-0,034200 
-0,042421 
-0,051300 
-0,051629 
-0,061330 
-0,060837 
-0,042257 
-0,002466 
0,012661 
-0,018580 
-0,043572 
-0,051794 
-0,053273 
-0,043572 
1,004468 
0,252720 
-0,022197 
-0,038640 
-0,040942 
-0,037653 
-0,013318 
0,017429 
0,050643 
0,094215 
0,152915 
0,224110 
0,347757 
0,421748 
0,441315 
0,336083 
0,156039 
0,045381 
0,004933 
-0,002795 
-0,008386 
-0,008386 
-0,019238 
-0,027130 
-0,041928 
-0,045874 
-0,052780 
-0,051958 
-0,051794 
-0,022197 
0,020882 
0,008714 
-0,017593 
-0,041928 
-0,041928 
-0,051629 
0,059028 
1,061524 
0,136143 
-0,012825 
-0,038475 
-0,043079 
-0,027294 
0,000164 
0,026472 
0,060015 
0,100134 
0,165411 
0,262092 
0,362556 
0,431449 
0,437369 
0,293662 
0,123976 
0,028281 
-0,003453 
-0,012332 
-0,009043 
-0,007728 
-0,022691 
-0,032556 
-0,043079 
-0,046697 
-0,052616 
-0,051958 
-0,045874 
-0,014634 
0,027952 
0,001809 
-0,018744 
-0,042093 
-0,037818 
-0,042257 
0,228385 
0,911404 
0,084843 
-0,011016 
-0,032392 
-0,027130 
-0,010359 
0,015949 
0,048834 
0,081554 
0,128580 
0,197802 
0,295142 
0,408430 
0,465650 
0,441315 
0,279686 
0,113124 
0,037982 
0,006906 
0,006413 
0,006577 
0,005426 
-0,003453 
-0,013483 
-0,023019 
-0,028610 
-0,022691 
-0,027130 
-0,021704 
0,009701 
0,044559 
0,025321 
-0,000658 
-0,017758 
-0,017593 
-0,020389 
0,245979 
1,054618 
0,119208 
0,025650 
-0,002138 
0,002466 
0,010194 
0,033378 
0,064619 
0,096517 
0,144036 
0,214245 
0,318654 
0,424873 
0,493273 
0,484559 
0,321614 
0,139596 
0,047683 
0,014469 
0,006413 
0,016114 
0,015785 
0,005097 
-0,003124 
-0,012496 
-0,017758 
-0,028939 
-0,027130 
-0,027952 
-0,003782 
0,032227 
0,031405 
0,006084 
-0,018909 
-0,027952 
-0,037653 
0,015949 
1,189939 
0,206188 
0,002466 
-0,024828 
-0,027788 
-0,021375 
0,004604 
0,030912 
0,060344 
0,102108 
0,162451 
0,249761 
0,365680 
0,452331 
0,472391 
0,346442 
0,160971 
0,043408 
0,002138 
-0,009537 
-0,004439 
-0,004111 
-0,012825 
-0,018251 
-0,027459 
-0,032720 
-0,033049 
-0,033378 
-0,037160 
-0,022691 
0,019402 
0,030090 
0,001809 
-0,024006 
-0,033707 
-0,034200 
-0,032063 
0,948893 
0,315366 
0,002466 
-0,014469 
-0,028445 
-0,016607 
0,005755 
0,033707 
0,065605 
0,096517 
0,155381 
0,235456 
0,342989 
0,431778 
0,460717 
0,368804 
0,186457 
0,060837 
0,008879 
-0,002466 
-0,008221 
-0,006741 
-0,010359 
-0,026472 
-0,037982 
-0,042915 
-0,047354 
-0,047190 
-0,043737 
-0,034694 
0,002466 
0,031569 
-0,006906 
-0,026308 
-0,036995 
-0,046368 
-0,047025 
0,812750 
0,411554 
-0,006577 
-0,022855 
-0,037324 
-0,027788 
-0,008879 
0,019731 
0,046532 
0,082212 
0,136472 
0,215889 
0,324903 
0,414185 
0,451345 
0,379163 
0,202406 
0,058699 
0,007564 
-0,002960 
-0,008386 
-0,007728 
-0,015620 
-0,027952 
-0,037818 
-0,042421 
-0,052123 
-0,052123 
-0,051958 
-0,034365 
0,005262 
0,029103 
-0,008057 
-0,032063 
-0,040120 
-0,042421 
-0,041764 
0,794005 
0,401524 
-0,001973 
-0,026637 
-0,036831 
-0,030419 
-0,008057 
0,020060 
0,049492 
0,089282 
0,142556 
0,218356 
0,324903 
0,422899 
0,461375 
0,399058 
0,200104 
0,063139 
0,010523 
-0,009537 
-0,003617 
0,006577 
-0,003288 
-0,011510 
-0,024170 
-0,033049 
-0,032885 
-0,026966 
-0,032556 
-0,023184 
0,012003 
0,045381 
0,017265 
-0,009043 
-0,027788 
-0,023019 
-0,027788 
0,646845 
0,646188 
0,051465 
0,002960 
-0,013647 
-0,007399 
0,009043 
0,033871 
0,063632 
0,099970 
0,153408 
0,232989 
0,345949 
0,448221 
0,499850 
0,445754 
0,257653 
0,098655 
0,027952 
0,004275 
0,006413 
0,010852 
0,006741 
-0,000987 
-0,008714 
-0,018416 
-0,018909 
-0,022855 
-0,027623 
-0,028939 
-0,006577 
0,026472 
0,027952 
0,005590 
-0,018416 
-0,021211 
-0,024664 
0,083034 
1,214109 
0,148968 
0,006741 
-0,025157 
-0,027952 
-0,013154 
0,010194 
0,039462 
0,072511 
0,118714 
0,177085 
0,274918 
0,392645 
0,467952 
0,475351 
0,328355 
0,148640 
0,042915 
0,001644 
-0,002631 
-0,002466 
-0,003124 
-0,003124 
-0,013318 
-0,022855 
-0,033049 
-0,032885 
-0,032720 
-0,032392 
-0,019402 
0,016442 
0,035022 
0,001644 
-0,026966 
-0,032885 
-0,032556 
-0,031405 
1,060537 
0,335919 
-0,003453 
-0,019073 
-0,024170 
-0,013154 
0,011016 
0,040777 
0,069716 
0,108520 
0,167384 
0,252720 
0,355814 
0,439177 
0,466801 
0,358938 
0,183169 
0,063632 
0,013976 
0,001644 
0,000987 
0,006084 
0,001644 
-0,008714 
-0,018251 
-0,032063 
-0,032720 
-0,032063 
-0,036831 
-0,022197 
0,012825 
0,039297 
0,006413 
-0,020389 
-0,028774 
-0,032720 
-0,029268 
0,855007 
0,420926 
0,013483 
-0,013154 
-0,021375 
-0,012990 
0,009043 
0,035187 
0,062810 
0,097175 
0,146995 
0,220329 
0,330493 
0,419775 
0,461539 
0,381464 
0,203557 
0,068072 
0,019731 
0,001809 
0,006248 
0,006413 
0,002302 
-0,017593 
-0,027623 
-0,033049 
-0,037160 
-0,040284 
-0,037489 
-0,028939 
0,007564 
0,040120 
0,006577 
-0,014798 
-0,032227 
-0,032720 
-0,032227 
0,609192 
0,556905 
0,029268 
-0,004933 
-0,026801 
-0,013976 
0,002138 
0,027459 
0,058535 
0,096846 
0,148640 
0,223617 
0,332302 
0,426352 
0,465979 
0,395276 
0,224110 
0,081061 
0,017593 
0,006413 
0,006741 
0,006248 
0,005426 
-0,008057 
-0,017922 
-0,027459 
-0,027952 
-0,027294 
-0,025979 
-0,022033 
0,005262 
0,042421 
0,022197 
-0,001644 
-0,017922 
-0,022033 
-0,027952 
0,284454 
0,999700 
0,094215 
0,020060 
-0,008386 
-0,003782 
0,014963 
0,037489 
0,066921 
0,097175 
0,144036 
0,223782 
0,325725 
0,434902 
0,492451 
0,462197 
0,284783 
0,110658 
0,031076 
0,000822 
0,002466 
0,010852 
0,011345 
0,001315 
-0,005426 
-0,021704 
-0,033871 
-0,036995 
-0,042915 
-0,042093 
-0,026637 
0,017265 
0,024828 
-0,006906 
-0,024664 
-0,032720 
-0,037324 
-0,017922 
1,140118 
0,242033 
0,002466 
-0,027623 
-0,031898 
-0,027130 
-0,004275 
0,020882 
0,052616 
0,088789 
0,149955 
0,236278 
0,347757 
0,441479 
0,470911 
0,366666 
0,173303 
0,044559 
-0,004439 
-0,017922 
-0,018744 
-0,013812 
-0,018087 
-0,026143 
-0,036667 
-0,045874 
-0,048341 
-0,051465 
-0,051794 
-0,040777 
-0,013318 
0,024664 
-0,008386 
-0,029432 
-0,046203 
-0,053109 
-0,051465 
0,534050 
0,638131 
0,001644 
-0,028117 
-0,047190 
-0,035187 
-0,017429 
0,013154 
0,037818 
0,077279 
0,127100 
0,200762 
0,305500 
0,396920 
0,436875 
0,376532 
0,207832 
0,061330 
0,000822 
-0,015456 
-0,017265 
-0,022526 
-0,024993 
-0,040120 
-0,050643 
-0,056562 
-0,061166 
-0,062317 
-0,062152 
-0,061001 
-0,024499 
0,020060 
-0,010523 
-0,034036 
-0,056891 
-0,057220 
-0,061330 
0,216876 
0,860268 
0,054424 
-0,024170 
-0,047354 
-0,041928 
-0,022691 
0,005919 
0,036009 
0,067907 
0,112795 
0,177085 
0,281988 
0,377025 
0,435889 
0,414843 
0,254858 
0,090269 
0,014963 
-0,011839 
-0,018251 
-0,017922 
-0,021868 
-0,031734 
-0,048176 
-0,057055 
-0,057384 
-0,056891 
-0,056891 
-0,049163 
-0,023842 
0,025815 
0,000493 
-0,025979 
-0,041106 
-0,041599 
-0,042586 
0,092406 
0,922092 
0,079910 
-0,012825 
-0,037160 
-0,033378 
-0,014305 
0,012496 
0,044395 
0,076128 
0,122825 
0,192048 
0,290702 
0,399387 
0,452496 
0,445590 
0,293991 
0,132197 
0,046697 
0,012003 
0,012003 
0,009372 
0,005097 
-0,005590 
-0,017100 
-0,022526 
-0,027459 
-0,029103 
-0,027130 
-0,027130 
-0,002466 
0,040284 
0,037324 
0,005755 
-0,022526 
-0,023348 
-0,018087 
0,110164 
1,160507 
0,149626 
0,023184 
-0,002466 
-0,001151 
0,015127 
0,038475 
0,066592 
0,099641 
0,144529 
0,210463 
0,303527 
0,415171 
0,492780 
0,503467 
0,358609 
0,172317 
0,072511 
0,032556 
0,020553 
0,017593 
0,011674 
0,001480 
-0,013812 
-0,022691 
-0,026801 
-0,027130 
-0,027459 
-0,028281 
-0,019566 
0,017593 
0,039955 
0,006084 
-0,012661 
-0,027952 
-0,022197 
-0,026143 
0,912062 
0,441479 
0,024664 
-0,009865 
-0,022197 
-0,017758 
0,003124 
0,028939 
0,059357 
0,094708 
0,149133 
0,228714 
0,342660 
0,441151 
0,476831 
0,407444 
0,220657 
0,080239 
0,020389 
0,001973 
-0,002960 
-0,002631 
-0,003288 
-0,016442 
-0,025815 
-0,031898 
-0,037653 
-0,037489 
-0,041599 
-0,037324 
-0,011674 
0,030583 
0,010359 
-0,012167 
-0,032720 
-0,032063 
-0,036995 
0,357623 
0,811434 
0,059357 
0,003946 
-0,023019 
-0,018087 
-0,001644 
0,024664 
0,057713 
0,089776 
0,135979 
0,207339 
0,305336 
0,409088 
0,464828 
0,440328 
0,282810 
0,120523 
0,044066 
0,018087 
0,006413 
0,007399 
0,001480 
-0,011510 
-0,025486 
-0,033543 
-0,032720 
-0,037653 
-0,037653 
-0,032720 
-0,010688 
0,035680 
0,020060 
-0,006248 
-0,031734 
-0,032392 
-0,032720 
0,180538 
0,980791 
0,104903 
0,008386 
-0,019073 
-0,019238 
-0,005426 
0,017100 
0,050314 
0,084514 
0,124963 
0,189581 
0,285112 
0,390837 
0,454633 
0,445754 
0,310104 
0,130553 
0,045217 
0,008714 
0,001151 
0,006248 
0,000987 
-0,012167 
-0,022855 
-0,032885 
-0,037982 
-0,046203 
-0,041928 
-0,042915 
-0,011181 
0,029761 
0,020553 
-0,003617 
-0,022362 
-0,027952 
-0,033214 
0,074155 
1,094408 
0,158998 
0,011345 
-0,013647 
-0,012990 
0,000987 
0,026308 
0,056398 
0,085830 
0,134664 
0,199776 
0,291031 
0,397578 
0,462855 
0,467952 
0,322272 
0,156039 
0,058535 
0,021540 
0,010523 
0,011016 
0,005755 
-0,004933 
-0,016607 
-0,027788 
-0,027788 
-0,032063 
-0,033543 
-0,032720 
-0,012661 
0,029268 
0,024664 
0,001151 
-0,022855 
-0,032392 
-0,030912 
0,057713 
1,183855 
0,174290 
0,016936 
-0,009865 
-0,007892 
0,005919 
0,027788 
0,060015 
0,084350 
0,130882 
0,196323 
0,298759 
0,404484 
0,483736 
0,484394 
0,339536 
0,155052 
0,057713 
0,016278 
0,008879 
0,015785 
0,010688 
-0,002138 
-0,012990 
-0,021540 
-0,030912 
-0,042093 
-0,037489 
-0,037324 
-0,026637 
0,016607 
0,036173 
0,005097 
-0,018087 
-0,031898 
-0,033214 
-0,029268 
0,981449 
0,397085 
0,020882 
-0,009372 
-0,022691 
-0,012496 
0,009537 
0,034694 
0,069551 
0,107369 
0,158505 
0,244006 
0,355979 
0,448878 
0,485710 
0,402182 
0,205366 
0,070702 
0,014469 
0,001315 
0,001809 
0,001315 
0,003453 
-0,009372 
-0,019073 
-0,027952 
-0,032885 
-0,032885 
-0,032063 
-0,027952 
0,008879 
0,045217 
0,016771 
-0,007399 
-0,022197 
-0,023184 
-0,031734 
0,556741 
0,673153 
0,036995 
0,006577 
-0,013812 
-0,011016 
0,008386 
0,031898 
0,060344 
0,095859 
0,140747 
0,209970 
0,308460 
0,411061 
0,465485 
0,414349 
0,240224 
0,091584 
0,029432 
0,004439 
0,001809 
0,001644 
0,001151 
-0,012990 
-0,027130 
-0,032720 
-0,037324 
-0,043901 
-0,037324 
-0,033543 
-0,001973 
0,041271 
0,009043 
-0,012496 
-0,033871 
-0,032556 
-0,036995 
0,385740 
0,798116 
0,061824 
0,001809 
-0,022855 
-0,012332 
0,005590 
0,030090 
0,062810 
0,094215 
0,146338 
0,210956 
0,309775 
0,413034 
0,462526 
0,430299 
0,270314 
0,111973 
0,044723 
0,021046 
0,007235 
0,006413 
0,001809 
-0,008221 
-0,023184 
-0,022691 
-0,032885 
-0,033049 
-0,031734 
-0,025979 
0,001973 
0,045217 
0,013812 
-0,008879 
-0,022197 
-0,028281 
-0,030419 
0,502481 
0,715904 
0,063797 
0,007399 
-0,013976 
-0,007564 
0,010359 
0,034858 
0,063632 
0,101450 
0,147324 
0,217205 
0,318819 
0,415829 
0,472062 
0,430627 
0,265710 
0,112466 
0,047519 
0,020717 
0,009043 
0,010688 
0,007399 
0,000164 
-0,016114 
-0,027294 
-0,035351 
-0,037160 
-0,036995 
-0,032720 
-0,001973 
0,030583 
0,010194 
-0,012003 
-0,027623 
-0,027952 
-0,030912 
0,313886 
0,927024 
0,077444 
0,004933 
-0,012990 
-0,008879 
0,006413 
0,033707 
0,059850 
0,095859 
0,139596 
0,220657 
0,334604 
0,434574 
0,489491 
0,451509 
0,276891 
0,108191 
0,037324 
0,011016 
0,010030 
0,010852 
0,006577 
-0,001480 
-0,014140 
-0,022197 
-0,032556 
-0,038475 
-0,041928 
-0,042421 
-0,020553 
0,016442 
0,018251 
-0,012003 
-0,040120 
-0,037982 
-0,037324 
0,043572 
1,206381 
0,166562 
0,010852 
-0,017922 
-0,017758 
-0,007070 
0,013318 
0,042915 
0,073498 
0,110986 
0,174948 
0,262421 
0,377683 
0,460388 
0,477159 
0,343482 
0,160314 
0,045874 
0,007399 
-0,002138 
-0,006906 
-0,003288 
-0,009701 
-0,017758 
-0,032885 
-0,047190 
-0,047519 
-0,046532 
-0,046039 
-0,034529 
0,008714 
0,032227 
-0,004933 
-0,028445 
-0,042750 
-0,042257 
-0,034036 
1,012690 
0,279357 
-0,009372 
-0,030912 
-0,037160 
-0,028610 
-0,005590 
0,021375 
0,043737 
0,085994 
0,143871 
0,231016 
0,336412 
0,418789 
0,450852 
0,360583 
0,181853 
0,058864 
0,005097 
-0,007892 
-0,008221 
-0,017429 
-0,027459 
-0,038969 
-0,047025 
-0,057220 
-0,061659 
-0,061659 
-0,068401 
-0,051465 
-0,007070 
0,011839 
-0,018416 
-0,047683 
-0,052123 
-0,051629 
-0,041764 
1,013512 
0,271465 
-0,022526 
-0,036667 
-0,047519 
-0,032392 
-0,012825 
0,011674 
0,049821 
0,086652 
0,145351 
0,228714 
0,328849 
0,412705 
0,430956 
0,337070 
0,162780 
0,047519 
-0,001480 
-0,007728 
-0,017593 
-0,018251 
-0,027294 
-0,038311 
-0,049821 
-0,056398 
-0,066099 
-0,062152 
-0,062317 
-0,044066 
0,004275 
0,012167 
-0,022855 
-0,047519 
-0,047847 
-0,056726 
-0,043079 
0,957443 
0,299417 
-0,009537 
-0,034694 
-0,041764 
-0,029596 
-0,007564 
0,021375 
0,054753 
0,089118 
0,147160 
0,228057 
0,337728 
0,423557 
0,448056 
0,335755 
0,161300 
0,052123 
0,008221 
0,001644 
0,001315 
0,002302 
-0,007892 
-0,019895 
-0,027952 
-0,033707 
-0,037653 
-0,037489 
-0,032063 
-0,017429 
0,022691 
0,031405 
-0,004768 
-0,022197 
-0,032392 
-0,032885 
-0,001809 
1,135515 
0,266203 
0,010194 
-0,006413 
-0,017758 
-0,002960 
0,021704 
0,053767 
0,087145 
0,126771 
0,189910 
0,274589 
0,392645 
0,472391 
0,495575 
0,368804 
0,185142 
0,074320 
0,030254 
0,016771 
0,013154 
0,014469 
0,005755 
-0,004111 
-0,017429 
-0,023677 
-0,027788 
-0,027952 
-0,027623 
-0,020882 
0,020224 
0,046039 
0,013976 
-0,011181 
-0,023019 
-0,023019 
-0,030090 
0,741554 
0,602122 
0,046532 
0,007564 
-0,012825 
-0,007892 
0,009537 
0,036173 
0,065276 
0,096188 
0,152421 
0,238580 
0,348086 
0,444768 
0,481270 
0,403826 
0,213752 
0,069058 
0,014798 
0,002138 
0,001644 
0,009537 
0,002631 
-0,003124 
-0,015949 
-0,022691 
-0,033049 
-0,037818 
-0,036338 
-0,032556 
-0,008550 
0,040120 
0,006413 
-0,018251 
-0,041928 
-0,041435 
-0,047354 
0,420926 
0,749775 
0,038640 
-0,005262 
-0,036338 
-0,029925 
-0,011839 
0,019402 
0,051629 
0,087145 
0,133184 
0,206188 
0,319641 
0,408594 
0,462197 
0,415336 
0,243512 
0,091256 
0,022691 
-0,000658 
-0,003453 
-0,003288 
-0,012661 
-0,022855 
-0,037160 
-0,045874 
-0,051958 
-0,050478 
-0,053109 
-0,043408 
-0,015949 
0,030747 
0,001480 
-0,020553 
-0,039955 
-0,042093 
-0,047025 
0,242033 
0,749117 
0,042257 
-0,012661 
-0,037324 
-0,032063 
-0,018580 
0,014140 
0,044888 
0,077608 
0,125291 
0,196158 
0,293333 
0,389686 
0,439013 
0,409252 
0,250418 
0,093722 
0,022526 
-0,004275 
-0,008057 
-0,012332 
-0,015620 
-0,030090 
-0,042257 
-0,052451 
-0,056891 
-0,061659 
-0,058042 
-0,052123 
-0,023348 
0,020389 
-0,004111 
-0,026966 
-0,052123 
-0,051958 
-0,056891 
0,327862 
0,781344 
0,048505 
-0,022362 
-0,042586 
-0,035845 
-0,017429 
0,007235 
0,040942 
0,074155 
0,120359 
0,193034 
0,290867 
0,386397 
0,438849 
0,402346 
0,240553 
0,086652 
0,016607 
-0,007235 
-0,008550 
-0,013154 
-0,013647 
-0,022855 
-0,034200 
-0,038804 
-0,047519 
-0,042586 
-0,041928 
-0,036995 
0,001315 
0,029432 
-0,002466 
-0,027788 
-0,037324 
-0,042915 
-0,045546 
0,769342 
0,479955 
0,014798 
-0,016114 
-0,027788 
-0,018744 
0,001644 
0,024499 
0,062810 
0,094873 
0,149791 
0,217369 
0,336741 
0,434409 
0,473871 
0,411061 
0,209477 
0,072676 
0,009701 
-0,003124 
-0,003453 
0,000822 
-0,005755 
-0,017922 
-0,028281 
-0,033378 
-0,037818 
-0,037160 
-0,037653 
-0,032556 
-0,001644 
0,036009 
0,008714 
-0,012661 
-0,037489 
-0,037982 
-0,042257 
0,483243 
0,813078 
0,055575 
-0,005426 
-0,022691 
-0,018416 
-0,003782 
0,025321 
0,059028 
0,094544 
0,141241 
0,209477 
0,315859 
0,421913 
0,470747 
0,442959 
0,257653 
0,098161 
0,023184 
-0,003453 
-0,003124 
-0,000164 
0,001809 
-0,008714 
-0,017429 
-0,019895 
-0,031898 
-0,036667 
-0,041435 
-0,037653 
-0,015127 
0,024499 
0,004275 
-0,022033 
-0,047519 
-0,046532 
-0,056726 
0,155217 
1,001509 
0,083528 
-0,013647 
-0,039133 
-0,032720 
-0,018087 
0,008386 
0,039626 
0,070702 
0,115261 
0,178400 
0,275740 
0,374065 
0,423228 
0,423393 
0,259955 
0,106218 
0,014140 
-0,002960 
-0,003288 
-0,005097 
-0,007728 
-0,019895 
-0,037818 
-0,054918 
-0,083528 
-0,076622 
-0,071196 
-0,043408 
-0,017429 
0,023513 
-0,002631 
-0,031898 
-0,046861 
-0,048505 
-0,048834 
0,361569 
0,743362 
0,026637 
-0,029761 
-0,053438 
-0,047025 
-0,030254 
0,005097 
0,040942 
0,079417 
0,130717 
0,202571 
0,287085 
0,388699 
0,433916 
0,399551 
0,219671 
0,061166 
-0,002631 
-0,013483 
-0,016936 
-0,022855 
-0,027130 
-0,037324 
-0,053109 
-0,052123 
-0,043079 
-0,051300 
-0,052123 
-0,036667 
-0,003124 
0,025486 
-0,020224 
-0,046697 
-0,049656 
-0,052287 
-0,058371 
0,743527 
0,452825 
0,004933 
-0,042257 
-0,047025 
-0,038969 
-0,015620 
0,013483 
0,045546 
0,087967 
0,140583 
0,216711 
0,321614 
0,405635 
0,447070 
0,375874 
0,218684 
0,057877 
0,006741 
-0,003453 
-0,013812 
-0,018416 
-0,017429 
-0,027623 
-0,036831 
-0,047683 
-0,052945 
-0,044230 
-0,040613 
-0,024993 
0,021540 
0,032392 
0,006906 
-0,017100 
-0,023019 
-0,027459 
-0,018416 
1,047383 
0,319312 
0,010688 
-0,009701 
-0,013154 
0,000493 
0,035680 
0,064948 
0,087309 
0,123812 
0,183991 
0,274589 
0,384095 
0,472227 
0,495082 
0,387384 
0,204379 
0,082377 
0,031405 
0,015949 
0,012661 
0,006577 
-0,002960 
-0,012990 
-0,032556 
-0,046697 
-0,046532 
-0,067250 
-0,042915 
-0,029432 
0,011510 
0,040284 
0,006906 
-0,012332 
-0,019895 
-0,024335 
-0,029103 
0,785126 
0,444275 
0,054589 
-0,008714 
-0,012661 
-0,003617 
0,013812 
0,036173 
0,059357 
0,107534 
0,149626 
0,233976 
0,353512 
0,438191 
0,480941 
0,387055 
0,199611 
0,065276 
0,006741 
-0,008221 
-0,003288 
0,006248 
-0,007235 
-0,018087 
-0,032227 
-0,037653 
-0,032556 
-0,042586 
-0,037324 
-0,033214 
0,000987 
0,035680 
0,000658 
-0,027459 
-0,047025 
-0,055904 
-0,062152 
0,349895 
0,797622 
0,046203 
-0,016278 
-0,046039 
-0,039626 
-0,020224 
0,011181 
0,034694 
0,067085 
0,107862 
0,182018 
0,284454 
0,388370 
0,438191 
0,415336 
0,257653 
0,092571 
0,011839 
-0,007728 
-0,007399 
-0,007564 
-0,015620 
-0,023184 
-0,037653 
-0,049163 
-0,047025 
-0,052123 
-0,052945 
-0,041928 
-0,007070 
0,044723 
0,009372 
-0,017429 
-0,034694 
-0,037160 
-0,042421 
0,343482 
0,805186 
0,054096 
-0,012003 
-0,040284 
-0,033049 
-0,014305 
0,010523 
0,041271 
0,076951 
0,124798 
0,193363 
0,288565 
0,394618 
0,453482 
0,441808 
0,269985 
0,122825 
0,038475 
0,015949 
0,006577 
0,004604 
-0,008386 
-0,022362 
-0,031241 
-0,045710 
-0,047025 
-0,052287 
-0,051629 
-0,045217 
-0,014305 
0,030090 
0,000822 
-0,023184 
-0,045874 
-0,042421 
-0,047519 
0,307309 
0,807817 
0,067085 
-0,012167 
-0,032392 
-0,019238 
0,003946 
0,029596 
0,063632 
0,098326 
0,139761 
0,208326 
0,299581 
0,394947 
0,453811 
0,417967 
0,255187 
0,109178 
0,044888 
0,016442 
0,005262 
0,006577 
-0,007070 
-0,017758 
-0,038969 
-0,046861 
-0,046697 
-0,043244 
-0,042421 
-0,034036 
-0,003617 
0,035516 
-0,003617 
-0,023842 
-0,037324 
-0,031898 
-0,027294 
0,556248 
0,688774 
0,054589 
0,002138 
-0,017922 
-0,017429 
0,000164 
0,022033 
0,052780 
0,090927 
0,150448 
0,236607 
0,351539 
0,459237 
0,513004 
0,458415 
0,271793 
0,108027 
0,041435 
0,015785 
0,014469 
0,016114 
0,009372 
-0,002631 
-0,012332 
-0,026472 
-0,032392 
-0,042421 
-0,041435 
-0,034858 
-0,003124 
0,038640 
0,025486 
0,005755 
-0,022855 
-0,022197 
-0,028610 
0,171988 
1,157219 
0,130060 
0,025815 
0,001809 
0,005590 
0,016114 
0,034036 
0,054753 
0,084679 
0,133019 
0,204544 
0,309282 
0,422077 
0,483736 
0,469103 
0,296786 
0,118386 
0,026143 
-0,003782 
-0,007564 
-0,002302 
0,004604 
0,001480 
-0,008057 
-0,023019 
-0,027952 
-0,034036 
-0,037324 
-0,038475 
-0,007235 
0,030419 
0,040777 
0,014634 
-0,011674 
-0,017593 
-0,028610 
0,002960 
1,133048 
0,221480 
0,010688 
-0,014963 
-0,018087 
-0,004275 
0,015127 
0,037818 
0,074155 
0,107698 
0,165411 
0,259297 
0,370119 
0,528789 
0,483736 
0,348251 
0,173468 
0,062152 
0,015620 
0,002466 
0,001480 
0,001480 
-0,003946 
-0,013154 
-0,027623 
-0,029596 
-0,032720 
-0,034036 
-0,031734 
-0,013483 
0,028281 
0,030747 
-0,001480 
-0,027130 
-0,017429 
0,000987 
0,101285 
1,098190 
0,160149 
0,016607 
-0,009043 
-0,014305 
0,002138 
0,025321 
0,055411 
0,082705 
0,125456 
0,184320 
0,273931 
0,379163 
0,452825 
0,462032 
0,337728 
0,153572 
0,056398 
0,016278 
0,006577 
0,006248 
0,005262 
-0,002795 
-0,017922 
-0,022526 
-0,026966 
-0,037982 
-0,037489 
-0,033049 
-0,009537 
0,026472 
0,023842 
-0,007728 
-0,035845 
-0,037324 
-0,033543 
0,047190 
1,083885 
0,155874 
0,000987 
-0,021211 
-0,017593 
-0,002138 
0,018087 
0,045546 
0,073498 
0,115590 
0,171495 
0,264559 
0,368968 
0,444275 
0,447727 
0,314708 
0,147653 
0,049821 
0,007070 
-0,002960 
-0,003124 
-0,002960 
-0,011181 
-0,026801 
-0,041435 
-0,042586 
-0,042093 
-0,042257 
-0,041271 
-0,009208 
0,035516 
0,015785 
-0,008057 
-0,032556 
-0,036502 
-0,032885 
0,097339 
1,103123 
0,138445 
0,005919 
-0,022855 
-0,021211 
-0,010030 
0,016442 
0,044559 
0,079581 
0,124963 
0,190568 
0,287085 
0,400044 
0,471240 
0,464005 
0,314379 
0,138281 
0,038311 
0,003288 
0,002302 
0,011674 
0,007892 
-0,004604 
-0,015785 
-0,028117 
-0,032392 
-0,037324 
-0,038146 
-0,037653 
-0,021868 
0,014305 
0,024499 
-0,001973 
-0,027788 
-0,034036 
-0,032885 
-0,024499 
1,078953 
0,329013 
0,009537 
-0,021704 
-0,032556 
-0,022033 
0,000493 
0,025815 
0,053438 
0,094051 
0,154394 
0,242526 
0,357952 
0,452167 
0,475844 
0,369297 
0,189581 
0,046861 
0,004275 
-0,013318 
-0,011674 
-0,007892 
-0,012332 
-0,025650 
-0,033707 
-0,041435 
-0,047519 
-0,050314 
-0,049821 
-0,042750 
-0,006248 
0,029103 
0,006577 
-0,019238 
-0,037653 
-0,041928 
-0,047683 
0,448714 
0,750597 
0,043408 
-0,007728 
-0,036502 
-0,033543 
-0,014305 
0,013647 
0,046861 
0,081719 
0,128580 
0,205695 
0,312406 
0,406457 
0,454962 
0,411225 
0,240388 
0,088131 
0,018909 
0,001809 
0,001315 
-0,003453 
-0,012496 
-0,024828 
-0,037160 
-0,044888 
-0,051794 
-0,051629 
-0,052451 
-0,048012 
-0,016771 
0,030583 
-0,003453 
-0,017265 
-0,033543 
-0,037489 
-0,051629 
0,476831 
0,695844 
0,034529 
-0,012990 
-0,036995 
-0,027459 
-0,010030 
0,018580 
0,045710 
0,074978 
0,132197 
0,203064 
0,304678 
0,396263 
0,456442 
0,416322 
0,256009 
0,101614 
0,028281 
0,006084 
0,005755 
0,011016 
0,006413 
-0,008221 
-0,024499 
-0,035516 
-0,037489 
-0,040942 
-0,041599 
-0,037489 
-0,009701 
0,035680 
-0,003288 
-0,023677 
-0,037324 
-0,042586 
-0,041928 
0,429970 
0,598176 
0,041106 
-0,011345 
-0,027952 
-0,024335 
-0,002631 
0,025650 
0,058535 
0,091584 
0,138116 
0,208819 
0,315859 
0,415829 
0,461868 
0,405799 
0,229865 
0,092735 
0,035845 
0,011181 
0,011510 
0,009701 
0,001644 
-0,013154 
-0,024006 
-0,027294 
-0,033049 
-0,032885 
-0,032720 
-0,022855 
0,016114 
0,041764 
0,007399 
-0,013483 
-0,024006 
-0,032556 
-0,033543 
0,864708 
0,415994 
0,018909 
0,048505 
-0,006906 
-0,017265 
0,004439 
0,026801 
0,058371 
0,097175 
0,147817 
0,230359 
0,338385 
0,434574 
0,476337 
0,401689 
0,210956 
0,067578 
0,019073 
0,002302 
0,005919 
0,007235 
0,006577 
-0,018087 
-0,027294 
-0,035022 
-0,037818 
-0,041928 
-0,047190 
-0,041928 
-0,000164 
0,021375 
-0,006413 
-0,026472 
-0,044066 
-0,041928 
-0,047025 
0,735799 
0,593736 
0,033871 
-0,002466 
-0,026966 
-0,013976 
0,001315 
0,030583 
0,059522 
0,097504 
0,149462 
0,227892 
0,330164 
0,444110 
0,483079 
0,404648 
0,216547 
0,078266 
0,020882 
0,001151 
0,000987 
0,006248 
0,000987 
-0,015620 
-0,022855 
-0,037160 
-0,042093 
-0,042257 
-0,047190 
-0,047190 
-0,015949 
0,024664 
-0,006577 
-0,023842 
-0,046697 
-0,048176 
-0,056726 
0,483079 
0,843004 
0,023348 
-0,032063 
-0,051629 
-0,042257 
-0,035022 
0,001644 
0,024006 
0,050807 
0,099148 
0,168864 
0,265381 
0,387055 
0,440000 
0,412212 
0,241375 
0,082048 
0,021704 
0,001644 
0,001809 
0,006084 
-0,008057 
-0,010359 
-0,008386 
-0,029103 
-0,047683 
-0,052287 
-0,052451 
-0,050149 
-0,010523 
0,020224 
-0,011016 
-0,036667 
-0,046368 
-0,046861 
-0,049985 
0,765724 
0,438684 
-0,002960 
-0,013812 
-0,033871 
-0,022526 
-0,002960 
0,028939 
0,063797 
0,091420 
0,164260 
0,243184 
0,346607 
0,430792 
0,460881 
0,399716 
0,226906 
0,093557 
0,045381 
0,021375 
0,011345 
0,005426 
-0,001644 
-0,018416 
-0,022855 
-0,032392 
-0,037489 
-0,033707 
-0,034365 
-0,018744 
0,028281 
0,020389 
-0,000164 
-0,028117 
-0,027952 
-0,031898 
0,023348 
1,091942 
0,191226 
0,004604 
-0,008714 
-0,013483 
0,002302 
0,024664 
0,051958 
0,081061 
0,126442 
0,178894 
0,272287 
0,372914 
0,440164 
0,453811 
0,337728 
0,170015 
0,069716 
0,028445 
0,015620 
0,006084 
0,001315 
-0,007070 
-0,020882 
-0,029432 
-0,036831 
-0,036995 
-0,040942 
-0,036667 
-0,002631 
0,036995 
0,005426 
-0,023513 
-0,040777 
-0,035351 
-0,034036 
0,557727 
0,649641 
0,045381 
0,003617 
-0,012990 
-0,007564 
0,012825 
0,042093 
0,069880 
0,108356 
0,156368 
0,232660 
0,336577 
0,432600 
0,480448 
0,434245 
0,246308 
0,103423 
0,035516 
0,010688 
0,011345 
0,006084 
0,006084 
-0,003453 
-0,013647 
-0,017593 
-0,024006 
-0,027623 
-0,032556 
-0,024170 
0,015949 
0,035516 
0,006248 
-0,018744 
-0,027130 
-0,032556 
-0,036173 
0,828370 
0,480777 
0,032227 
-0,002466 
-0,017593 
-0,008221 
0,010852 
0,036009 
0,068729 
0,100463 
0,157847 
0,240060 
0,350388 
0,446412 
0,480777 
0,403826 
0,217369 
0,077115 
0,022691 
0,001315 
0,000329 
0,004439 
0,005919 
-0,004933 
-0,017922 
-0,027130 
-0,031898 
-0,032720 
-0,036995 
-0,032720 
0,011510 
0,033543 
-0,004768 
-0,027623 
-0,042257 
-0,046039 
-0,045217 
0,856158 
0,403991 
-0,000329 
-0,022033 
-0,037160 
-0,034365 
-0,010194 
0,017100 
0,050478 
0,086158 
0,136965 
0,215231 
0,318161 
0,403991 
0,437040 
0,352361 
0,176098 
0,054260 
0,001151 
-0,019895 
-0,022526 
-0,025321 
-0,038311 
-0,041271 
-0,056726 
-0,057220 
-0,066921 
-0,065770 
-0,067250 
-0,047519 
-0,000493 
-0,009043 
-0,040942 
-0,065770 
-0,070538 
-0,075635 
0,013154 
1,030612 
0,099641 
-0,046697 
-0,073169 
-0,072018 
-0,062152 
-0,036831 
-0,007728 
0,030090 
0,072347 
0,129731 
0,215396 
0,314873 
0,381793 
0,379985 
0,260119 
0,082212 
-0,008714 
-0,031898 
-0,040777 
-0,040942 
-0,051958 
-0,067578 
-0,070867 
-0,086487 
-0,092242 
-0,091420 
-0,096188 
-0,079910 
-0,046203 
-0,013318 
-0,041435 
-0,059357 
-0,071853 
-0,066921 
-0,066921 
0,684663 
0,492615 
-0,005097 
-0,030090 
-0,047354 
-0,037324 
-0,017265 
0,014140 
0,076786 
0,097832 
0,126442 
0,200269 
0,306980 
0,401524 
0,426517 
0,351210 
0,186950 
0,065770 
0,024335 
-0,007070 
-0,017593 
-0,022691 
-0,025815 
-0,038969 
-0,051958 
-0,056398 
-0,065934 
-0,066921 
-0,058042 
-0,028939 
0,011016 
-0,013154 
-0,036667 
-0,063632 
-0,057055 
-0,057384 
0,246143 
0,878026 
0,076128 
-0,007070 
-0,041106 
-0,036831 
-0,013812 
0,013318 
0,044723 
0,082541 
0,130717 
0,193363 
0,291689 
0,387384 
0,451180 
0,430627 
0,279686 
0,117070 
0,041599 
0,018087 
0,011016 
0,010852 
0,006248 
-0,008550 
-0,017758 
-0,027952 
-0,031734 
-0,032392 
-0,033543 
-0,017100 
0,024006 
0,044559 
0,010852 
-0,012496 
-0,022197 
-0,023513 
-0,023513 
0,946262 
0,444110 
0,034036 
0,004111 
-0,007892 
0,004275 
0,027294 
0,058864 
0,090269 
0,122661 
0,189910 
0,276233 
0,387877 
0,472720 
0,495739 
0,406786 
0,225097 
0,091420 
0,046039 
0,031076 
0,025650 
0,019895 
0,006413 
-0,002795 
-0,012825 
-0,019731 
-0,027952 
-0,030583 
-0,031076 
-0,009865 
0,029761 
0,025650 
-0,003782 
-0,031898 
-0,032063 
-0,032720 
0,012496 
1,165604 
0,205037 
0,011345 
-0,018416 
-0,022855 
-0,007728 
0,011674 
0,044395 
0,072182 
0,114439 
0,175770 
0,261928 
0,361240 
0,446577 
0,460881 
0,335097 
0,164753 
0,064619 
0,025486 
0,011674 
0,011674 
0,005755 
0,001480 
-0,008057 
-0,017593 
-0,023019 
-0,029268 
-0,027459 
-0,029596 
-0,000329 
0,040777 
0,009537 
-0,011016 
-0,027130 
-0,027459 
-0,028117 
0,422242 
0,738594 
0,088954 
0,006741 
-0,017922 
-0,000329 
0,015949 
0,040942 
0,074649 
0,107205 
0,154066 
0,218684 
0,317832 
0,407279 
0,453318 
0,434245 
0,279357 
0,135486 
0,065276 
0,044395 
0,036502 
0,020882 
0,006906 
-0,013318 
-0,022855 
-0,027788 
-0,036831 
-0,042093 
-0,042257 
-0,020882 
0,025979 
0,015456 
-0,012825 
-0,042750 
-0,036502 
-0,042586 
0,011016 
1,070402 
0,170508 
-0,012332 
-0,026143 
-0,018909 
-0,014469 
0,007235 
0,035845 
0,068401 
0,109342 
0,172481 
0,254036 
0,356801 
0,419118 
0,439835 
0,321943 
0,157354 
0,058042 
0,018909 
0,007070 
0,006741 
0,000822 
-0,010523 
-0,023184 
-0,037324 
-0,039133 
-0,042257 
-0,042093 
-0,028281 
0,006741 
0,035680 
0,000329 
-0,022197 
-0,037982 
-0,041928 
-0,045381 
0,741554 
0,465485 
0,014634 
-0,012496 
-0,027459 
-0,013483 
0,004933 
0,029761 
0,063797 
0,100299 
0,151928 
0,229208 
0,332959 
0,415336 
0,451509 
0,385575 
0,212272 
0,084350 
0,029596 
0,012496 
0,000493 
-0,003288 
-0,008057 
-0,019073 
-0,027952 
-0,037324 
-0,038146 
-0,042093 
-0,036667 
-0,025321 
0,016771 
0,018087 
-0,008221 
-0,032885 
-0,038311 
-0,042257 
-0,004275 
1,138639 
0,231016 
0,006741 
-0,018416 
-0,022691 
-0,012990 
0,014798 
0,044230 
0,075964 
0,113946 
0,175934 
0,263737 
0,371106 
0,452331 
0,471569 
0,350388 
0,171166 
0,061988 
0,021046 
0,006413 
0,010852 
0,006413 
0,000000 
-0,012825 
-0,029103 
-0,032063 
-0,032392 
-0,041928 
-0,037982 
-0,016278 
0,020882 
0,024335 
-0,004604 
-0,036338 
-0,041928 
-0,048012 
-0,006577 
1,155410 
0,170837 
-0,012825 
-0,040777 
-0,042586 
-0,037489 
-0,012825 
0,012496 
0,048341 
0,085665 
0,145022 
0,239073 
0,340358 
0,413692 
0,433094 
0,299910 
0,118550 
0,022855 
-0,011016 
-0,017429 
-0,022362 
-0,027623 
-0,032227 
-0,051465 
-0,055740 
-0,061988 
-0,066921 
-0,067414 
-0,066756 
-0,038146 
0,005426 
-0,018416 
-0,040284 
-0,063468 
-0,061659 
-0,067743 
0,151928 
0,958101 
0,070538 
-0,025486 
-0,059522 
-0,053767 
-0,037160 
-0,014634 
0,014963 
0,048834 
0,096188 
0,152586 
0,242033 
0,340687 
0,400538 
0,406128 
0,264888 
0,105725 
0,013483 
-0,012825 
-0,017593 
-0,022197 
-0,027294 
-0,033543 
-0,052287 
-0,062317 
-0,067743 
-0,069880 
-0,072018 
-0,061001 
-0,029103 
0,010359 
-0,022197 
-0,045710 
-0,062646 
-0,065605 
-0,070045 
0,511524 
0,576143 
-0,003782 
-0,041271 
-0,066263 
-0,056726 
-0,037653 
-0,005755 
0,024006 
0,056398 
0,108520 
0,183498 
0,285441 
0,358281 
0,403333 
0,354663 
0,189746 
0,048012 
-0,003617 
-0,020224 
-0,029268 
-0,028281 
-0,042750 
-0,051958 
-0,067414 
-0,076457 
-0,081554 
-0,080897 
-0,076786 
-0,057220 
-0,006577 
-0,011839 
-0,032227 
-0,052451 
-0,051136 
-0,047683 
0,034694 
1,076979 
0,165246 
-0,003288 
-0,031734 
-0,031734 
-0,020882 
0,003782 
0,031076 
0,067250 
0,109013 
0,165575 
0,254364 
0,351375 
0,418131 
0,433423 
0,313722 
0,141241 
0,050972 
0,005590 
-0,003124 
-0,004604 
-0,008057 
-0,018251 
-0,031569 
-0,042586 
-0,047190 
-0,052287 
-0,052287 
-0,046697 
-0,019566 
0,025321 
-0,003288 
-0,025321 
-0,037653 
-0,041106 
-0,042093 
0,351210 
0,755201 
0,041106 
-0,011181 
-0,032720 
-0,028117 
-0,008386 
0,016442 
0,045052 
0,085665 
0,135979 
0,210134 
0,310598 
0,403826 
0,456442 
0,414678 
0,237264 
0,087145 
0,019402 
-0,003288 
-0,004439 
-0,008550 
-0,013483 
-0,022691 
-0,028610 
-0,037982 
-0,041928 
-0,047519 
-0,047190 
-0,041435 
-0,003782 
0,030090 
-0,001315 
-0,025486 
-0,047354 
-0,047025 
-0,051958 
0,598340 
0,649969 
0,028774 
-0,021868 
-0,046861 
-0,041435 
-0,019566 
0,006413 
0,034200 
0,072676 
0,125127 
0,198953 
0,297937 
0,380642 
0,431121 
0,388206 
0,213587 
0,066263 
0,000000 
-0,018251 
-0,022033 
-0,022197 
-0,026801 
-0,042915 
-0,054096 
-0,063797 
-0,067250 
-0,071853 
-0,067743 
-0,061495 
-0,029103 
0,006741 
-0,020717 
-0,040284 
-0,052123 
-0,046532 
-0,046697 
0,764409 
0,451838 
-0,000493 
-0,021046 
-0,037160 
-0,033707 
-0,008386 
0,018909 
0,049656 
0,084679 
0,138939 
0,213258 
0,311091 
0,393961 
0,430627 
0,343318 
0,176592 
0,058042 
0,012167 
0,001809 
-0,007399 
-0,012167 
-0,023019 
-0,037324 
-0,046697 
-0,057220 
-0,057549 
-0,056891 
-0,057220 
-0,037489 
0,009701 
0,001644 
-0,026637 
-0,053602 
-0,057713 
-0,056891 
0,026801 
1,051165 
0,138445 
-0,022526 
-0,050478 
-0,051794 
-0,040448 
-0,013976 
0,016114 
0,049163 
0,091584 
0,152421 
0,235949 
0,335755 
0,400373 
0,407772 
0,287907 
0,125127 
0,031898 
-0,002466 
-0,007399 
-0,017429 
-0,024170 
-0,042257 
-0,048012 
-0,057055 
-0,067414 
-0,071196 
-0,072182 
-0,066756 
-0,036338 
0,009701 
-0,019731 
-0,042257 
-0,061495 
-0,062481 
-0,071196 
0,373737 
0,871613 
0,033707 
-0,027294 
-0,055411 
-0,051300 
-0,034200 
-0,006413 
0,022855 
0,059522 
0,107205 
0,179387 
0,277713 
0,366337 
0,418296 
0,389850 
0,223453 
0,080732 
0,016442 
-0,003453 
-0,007070 
-0,013976 
-0,023677 
-0,027623 
-0,042257 
-0,047354 
-0,049985 
-0,049327 
-0,046861 
-0,040613 
0,001973 
0,027459 
-0,007070 
-0,031076 
-0,042915 
-0,042257 
-0,045217 
0,885425 
0,433258 
0,001644 
-0,017593 
-0,028774 
-0,017429 
-0,003124 
0,024499 
0,062646 
0,103916 
0,160478 
0,248938 
0,349731 
0,434738 
0,461375 
0,367817 
0,183498 
0,076457 
0,020882 
0,006741 
0,006413 
0,001480 
0,001644 
-0,012496 
-0,017593 
-0,026637 
-0,032885 
-0,033707 
-0,031734 
-0,022691 
0,018580 
0,038969 
0,005919 
-0,017758 
-0,033543 
-0,036502 
-0,034858 
0,882301 
0,428983 
0,022526 
-0,010194 
-0,023019 
-0,014798 
0,005590 
0,031734 
0,062481 
0,099148 
0,150777 
0,234469 
0,342331 
0,423886 
0,455127 
0,378834 
0,192212 
0,070867 
0,021375 
0,006084 
0,002302 
-0,002795 
-0,004768 
-0,017758 
-0,023677 
-0,026308 
-0,038146 
-0,037489 
-0,040448 
-0,031734 
0,006741 
0,035351 
0,000164 
-0,024499 
-0,036831 
-0,037324 
-0,036667 
0,882794 
0,383109 
0,003782 
-0,019566 
-0,027294 
-0,017593 
-0,003453 
0,023677 
0,056233 
0,092242 
0,147653 
0,230194 
0,322272 
0,398400 
0,434245 
0,368968 
0,182182 
0,064290 
0,022855 
0,001151 
0,002631 
-0,011181 
-0,018251 
-0,029925 
-0,040942 
-0,050314 
-0,052123 
-0,052123 
-0,046532 
-0,031898 
0,005590 
0,019566 
-0,011510 
-0,037818 
-0,040942 
-0,042421 
-0,022362 
1,050672 
0,227728 
-0,008057 
-0,030747 
-0,035845 
-0,026472 
-0,005755 
0,024335 
0,061495 
0,102930 
0,159656 
0,225261 
0,333946 
0,403497 
0,419446 
0,332302 
0,169521 
0,060344 
0,016114 
-0,000329 
-0,003453 
-0,018087 
-0,027130 
-0,037324 
-0,047519 
-0,052451 
-0,056726 
-0,051958 
-0,044888 
-0,022362 
0,033049 
0,010194 
-0,016278 
-0,044230 
-0,047519 
-0,047190 
0,145516 
0,960238 
0,096682 
-0,012496 
-0,031898 
-0,032885 
-0,019402 
0,006248 
0,039297 
0,071525 
0,114768 
0,181031 
0,265216 
0,355814 
0,414185 
0,408430 
0,269985 
0,114933 
0,037324 
0,003946 
0,001480 
-0,002960 
-0,007728 
-0,022855 
-0,027623 
-0,036831 
-0,036995 
-0,039626 
-0,037324 
-0,031898 
0,002960 
0,035680 
0,003617 
-0,017593 
-0,033543 
-0,036995 
-0,042093 
0,690418 
0,571210 
0,036502 
0,001151 
-0,017922 
-0,010194 
0,010194 
0,035351 
0,069387 
0,105889 
0,157354 
0,233318 
0,336577 
0,425201 
0,470418 
0,422735 
0,241375 
0,101450 
0,041764 
0,015785 
0,010030 
0,006906 
0,001644 
-0,014798 
-0,016936 
-0,028939 
-0,033214 
-0,038475 
-0,037653 
-0,029596 
0,004439 
0,035516 
0,010852 
-0,015456 
-0,032720 
-0,032392 
-0,037324 
0,358116 
0,762271 
0,037489 
-0,002138 
-0,021211 
-0,013647 
0,004933 
0,030583 
0,059357 
0,097339 
0,148311 
0,221315 
0,320792 
0,409910 
0,450852 
0,401524 
0,219671 
0,085336 
0,022691 
0,002138 
-0,003288 
-0,002631 
-0,012332 
-0,022691 
-0,032227 
-0,042421 
-0,052287 
-0,048012 
-0,047025 
-0,047354 
-0,012825 
0,026143 
-0,005426 
-0,026472 
-0,046368 
-0,048176 
-0,055411 
0,512346 
0,670687 
0,023348 
-0,018744 
-0,041928 
-0,032392 
-0,018909 
0,008879 
0,041106 
0,081226 
0,124469 
0,200104 
0,298101 
0,377025 
0,417473 
0,364858 
0,207175 
0,068729 
0,014634 
-0,003124 
-0,013647 
-0,018087 
-0,026143 
-0,037489 
-0,047683 
-0,055740 
-0,057055 
-0,063139 
-0,061166 
-0,049492 
-0,010030 
0,008879 
-0,027952 
-0,049327 
-0,061330 
-0,062317 
-0,065441 
0,947084 
0,278206 
-0,023677 
-0,041764 
-0,051629 
-0,042257 
-0,018580 
0,014305 
0,052287 
0,089118 
0,139925 
0,218191 
0,309775 
0,379163 
0,417638 
0,323094 
0,158176 
0,049492 
0,004275 
-0,008386 
-0,017429 
-0,028117 
-0,037653 
-0,053438 
-0,060179 
-0,068729 
-0,071853 
-0,071196 
-0,066099 
-0,044888 
0,007728 
0,003946 
-0,026472 
-0,052123 
-0,053109 
-0,051465 
0,040448 
1,045574 
0,139267 
-0,017100 
-0,037818 
-0,041599 
-0,023348 
0,001151 
0,032227 
0,062481 
0,110658 
0,171823 
0,259955 
0,351704 
0,417802 
0,420269 
0,286427 
0,136472 
0,050314 
0,016278 
0,001644 
0,001973 
-0,006577 
-0,018744 
-0,025979 
-0,034694 
-0,036009 
-0,042586 
-0,037489 
-0,026801 
0,011510 
0,041106 
0,011345 
-0,008386 
-0,027130 
-0,027952 
-0,028939 
0,585351 
0,661644 
0,049492 
0,014469 
-0,012003 
-0,004275 
0,016278 
0,045710 
0,076128 
0,114604 
0,167055 
0,239895 
0,342660 
0,426023 
0,474364 
0,427997 
0,261435 
0,119043 
0,056398 
0,031405 
0,020224 
0,010688 
-0,000822 
-0,007399 
-0,017758 
-0,028445 
-0,032227 
-0,033049 
-0,037160 
-0,030254 
0,005919 
0,040284 
0,004111 
-0,018087 
-0,032227 
-0,032556 
-0,037324 
0,590777 
0,674962 
0,033707 
-0,000329 
-0,017758 
-0,010194 
0,009208 
0,035845 
0,067414 
0,098983 
0,155217 
0,236442 
0,323423 
0,418296 
0,455949 
0,400702 
0,216711 
0,081061 
0,034200 
0,006413 
0,004768 
-0,002466 
-0,012003 
-0,023513 
-0,032885 
-0,038146 
-0,042586 
-0,047354 
-0,042586 
-0,037982 
-0,001151 
0,036338 
0,004275 
-0,023184 
-0,036995 
-0,037653 
-0,042750 
0,708998 
0,523692 
0,020553 
-0,009372 
-0,027788 
-0,021540 
-0,008057 
0,024499 
0,059357 
0,096682 
0,149297 
0,217040 
0,316024 
0,403826 
0,445261 
0,380807 
0,222631 
0,087309 
0,039462 
0,020224 
0,002138 
0,000000 
-0,008057 
-0,023513 
-0,027788 
-0,036831 
-0,037982 
-0,041764 
-0,041599 
-0,029596 
0,006413 
0,035187 
0,002960 
-0,021375 
-0,027459 
-0,027788 
-0,036173 
0,889042 
0,361405 
0,002795 
-0,012661 
-0,022526 
-0,012990 
0,009701 
0,032556 
0,064619 
0,106383 
0,158669 
0,234634 
0,332630 
0,405964 
0,439177 
0,362227 
0,187444 
0,077773 
0,025486 
0,008879 
0,005426 
-0,007564 
-0,013154 
-0,023184 
-0,032392 
-0,037818 
-0,045052 
-0,041928 
-0,041928 
-0,023348 
0,031241 
0,023348 
-0,006741 
-0,034200 
-0,037160 
-0,037653 
0,066263 
1,070731 
0,160314 
0,006741 
-0,019073 
-0,022526 
-0,008221 
0,022197 
0,053273 
0,090105 
0,127758 
0,194350 
0,279357 
0,375052 
0,436711 
0,434080 
0,292840 
0,134828 
0,052287 
0,020717 
0,007235 
0,000822 
-0,008221 
-0,012825 
-0,025979 
-0,031734 
-0,038640 
-0,042093 
-0,037324 
-0,032063 
0,003453 
0,040613 
0,007070 
-0,017265 
-0,032556 
-0,032392 
-0,036667 
0,607219 
0,645859 
0,045546 
-0,003617 
-0,024006 
-0,012661 
0,004933 
0,038640 
0,068894 
0,107040 
0,156532 
0,226412 
0,322436 
0,412212 
0,459402 
0,407279 
0,235291 
0,094380 
0,040777 
0,020224 
0,007235 
0,006413 
-0,003617 
-0,011674 
-0,022855 
-0,033049 
-0,036995 
-0,032885 
-0,036009 
-0,032063 
0,002960 
0,040284 
0,013976 
-0,009208 
-0,027130 
-0,027788 
-0,032392 
0,743527 
0,573183 
0,040777 
0,000658 
-0,017593 
-0,010852 
0,009865 
0,038311 
0,070702 
0,105067 
0,154230 
0,233318 
0,332795 
0,422899 
0,466965 
0,387548 
0,211614 
0,088954 
0,035680 
0,010359 
0,006741 
0,001809 
-0,009043 
-0,017593 
-0,029268 
-0,032720 
-0,036831 
-0,037324 
-0,037324 
-0,028281 
0,010194 
0,041435 
0,010359 
-0,014469 
-0,027130 
-0,033707 
-0,035680 
0,806501 
0,444932 
0,017758 
-0,004604 
-0,026801 
-0,012167 
0,002302 
0,027294 
0,063797 
0,106876 
0,156203 
0,230359 
0,327369 
0,409417 
0,446412 
0,376203 
0,209148 
0,085172 
0,035516 
0,010852 
0,006741 
0,001315 
-0,006741 
-0,018087 
-0,033378 
-0,036831 
-0,037982 
-0,039297 
-0,037653 
-0,018909 
0,027294 
0,026966 
-0,007728 
-0,032885 
-0,036831 
-0,041764 
0,032885 
1,066456 
0,155545 
0,009701 
-0,011181 
-0,010359 
-0,001809 
0,035187 
0,050314 
0,081226 
0,121510 
0,185306 
0,275082 
0,370284 
0,431449 
0,439671 
0,321285 
0,155052 
0,060673 
0,025321 
0,010359 
0,001480 
-0,003617 
-0,013647 
-0,027459 
-0,030583 
-0,042257 
-0,041764 
-0,038146 
-0,032885 
-0,007892 
0,040284 
0,010359 
-0,011181 
-0,032556 
-0,032227 
-0,035351 
0,611659 
0,610343 
0,035516 
-0,001973 
-0,022197 
-0,013318 
0,001644 
0,025979 
0,060344 
0,092406 
0,145516 
0,220657 
0,314873 
0,400702 
0,446905 
0,409910 
0,249596 
0,106711 
0,040942 
0,021046 
0,006577 
0,001809 
-0,003288 
-0,016442 
-0,023677 
-0,027294 
-0,027952 
-0,027788 
-0,029268 
-0,001973 
0,049985 
0,038311 
0,014469 
-0,011016 
-0,017758 
-0,018251 
0,102108 
1,100657 
0,166069 
0,021211 
-0,007235 
-0,002631 
0,006413 
0,030254 
0,059686 
0,093886 
0,145187 
0,202735 
0,289716 
0,396098 
0,463512 
0,468938 
0,335261 
0,167220 
0,077115 
0,036173 
0,021540 
0,011510 
0,005755 
-0,003124 
-0,014140 
-0,022197 
-0,033378 
-0,031241 
-0,032720 
-0,028117 
0,001973 
0,033214 
0,019566 
-0,003617 
-0,024664 
-0,027788 
-0,028610 
0,214574 
1,064319 
0,107369 
0,020553 
-0,015785 
-0,011839 
0,001480 
0,027294 
0,056726 
0,092735 
0,134499 
0,196980 
0,303198 
0,407937 
0,460059 
0,443946 
0,277384 
0,118879 
0,044230 
0,015291 
0,006906 
0,001480 
-0,001644 
-0,012990 
-0,027788 
-0,032392 
-0,033049 
-0,042257 
-0,042257 
-0,035845 
-0,004933 
0,035516 
0,011674 
-0,014634 
-0,037818 
-0,036667 
-0,042750 
0,412705 
0,809625 
0,067250 
0,002795 
-0,032556 
-0,027788 
-0,013318 
0,013483 
0,045381 
0,083034 
0,130882 
0,197309 
0,291689 
0,375052 
0,434574 
0,407608 
0,244335 
0,094708 
0,035680 
0,005919 
0,002138 
-0,006248 
-0,009372 
-0,022526 
-0,032556 
-0,043408 
-0,046861 
-0,047190 
-0,046203 
-0,036995 
-0,001315 
0,029596 
-0,003617 
-0,024006 
-0,037818 
-0,038804 
-0,045546 
0,872107 
0,391494 
0,007564 
-0,013812 
-0,032227 
-0,020553 
-0,002795 
0,024993 
0,063468 
0,102108 
0,158834 
0,235291 
0,327040 
0,405142 
0,437369 
0,359432 
0,184977 
0,070045 
0,020717 
0,000493 
-0,003617 
-0,007235 
-0,017429 
-0,032720 
-0,043244 
-0,051465 
-0,051465 
-0,057055 
-0,052945 
-0,037653 
0,016771 
0,006413 
-0,021211 
-0,047025 
-0,052945 
-0,051958 
0,080732 
0,938534 
0,096682 
-0,011016 
-0,042093 
-0,036502 
-0,017758 
0,005755 
0,033214 
0,070867 
0,112137 
0,179551 
0,267683 
0,358281 
0,420269 
0,415994 
0,272944 
0,109178 
0,029268 
0,004111 
-0,008221 
-0,011839 
-0,014963 
-0,021704 
-0,032227 
-0,042257 
-0,041928 
-0,047519 
-0,046368 
-0,036173 
0,004111 
0,036502 
0,006413 
-0,019402 
-0,032556 
-0,036502 
-0,038804 
0,818176 
0,441315 
0,043408 
-0,005262 
-0,014634 
-0,006413 
0,011839 
0,037982 
0,070702 
0,107369 
0,162287 
0,240060 
0,343976 
0,430463 
0,470254 
0,404484 
0,224604 
0,095366 
0,040120 
0,021046 
0,011181 
0,008714 
0,001973 
-0,011839 
-0,018251 
-0,027623 
-0,033214 
-0,032556 
-0,038804 
-0,022362 
0,015785 
0,028445 
-0,002960 
-0,024828 
-0,037160 
-0,037982 
-0,014963 
1,146531 
0,260613 
0,020389 
-0,014140 
-0,017100 
-0,003782 
0,019238 
0,041928 
0,076622 
0,117399 
0,168864 
0,261435 
0,368475 
0,449536 
0,475680 
0,371599 
0,186950 
0,080897 
0,032720 
0,017265 
0,010852 
0,010194 
0,003617 
-0,012332 
-0,022691 
-0,032556 
-0,032720 
-0,042915 
-0,041435 
-0,031241 
0,004439 
0,032556 
-0,001973 
-0,024006 
-0,037653 
-0,038146 
-0,012496 
1,136994 
0,219013 
0,001315 
-0,021868 
-0,027459 
-0,012167 
0,007235 
0,035680 
0,070867 
0,107205 
0,169521 
0,254200 
0,354170 
0,428819 
0,451838 
0,341181 
0,165904 
0,064290 
0,017922 
-0,003617 
-0,003453 
-0,013154 
-0,022691 
-0,033049 
-0,043408 
-0,047025 
-0,041928 
-0,042093 
-0,041764 
-0,022526 
0,021211 
0,011181 
-0,018087 
-0,044395 
-0,047683 
-0,051465 
0,108191 
1,003153 
0,103587 
-0,011839 
-0,037160 
-0,031076 
-0,018909 
0,004275 
0,031734 
0,065441 
0,105725 
0,163438 
0,256666 
0,353348 
0,420926 
0,415171 
0,275082 
0,113946 
0,037160 
0,006248 
-0,004439 
-0,008386 
-0,012496 
-0,031076 
-0,042093 
-0,051136 
-0,051136 
-0,058371 
-0,052287 
-0,047519 
-0,020389 
0,024828 
-0,007235 
-0,032063 
-0,052616 
-0,051465 
-0,051958 
0,631061 
0,526816 
0,013154 
-0,023184 
-0,040777 
-0,036995 
-0,021868 
0,000658 
0,037489 
0,073827 
0,120523 
0,195501 
0,286263 
0,368475 
0,420433 
0,369626 
0,202406 
0,069387 
0,007070 
-0,013483 
-0,017429 
-0,022855 
-0,027623 
-0,042093 
-0,051465 
-0,062317 
-0,065770 
-0,061824 
-0,061330 
-0,048012 
-0,007728 
0,010688 
-0,021704 
-0,044559 
-0,046861 
-0,046532 
-0,036009 
1,018609 
0,266696 
-0,007728 
-0,035022 
-0,037160 
-0,027623 
0,001151 
0,026308 
0,057055 
0,102436 
0,157354 
0,249103 
0,348580 
0,424215 
0,451016 
0,341674 
0,171166 
0,058371 
0,011016 
0,001644 
-0,003288 
0,000822 
-0,008221 
-0,019566 
-0,027623 
-0,032227 
-0,032556 
-0,037818 
-0,031898 
-0,014963 
0,027623 
0,032063 
0,007399 
-0,018416 
-0,023019 
-0,028610 
0,055411 
1,199476 
0,179880 
0,020224 
-0,008221 
-0,008221 
0,004604 
0,029103 
0,056069 
0,085830 
0,129073 
0,189910 
0,281166 
0,384589 
0,462361 
0,473378 
0,335755 
0,157519 
0,053602 
0,017100 
0,001644 
0,001973 
0,006906 
0,001151 
-0,008057 
-0,018251 
-0,024664 
-0,027623 
-0,032720 
-0,032885 
-0,016278 
0,025486 
0,028774 
-0,007070 
-0,037160 
-0,037324 
-0,039955 
0,071360 
1,148011 
0,128087 
-0,007728 
-0,041271 
-0,041599 
-0,034200 
-0,005426 
0,019731 
0,054096 
0,101121 
0,159327 
0,250254 
0,358445 
0,425530 
0,434574 
0,297279 
0,124634 
0,026637 
-0,005426 
-0,011345 
-0,014140 
-0,022691 
-0,028117 
-0,037160 
-0,047683 
-0,058371 
-0,061495 
-0,056562 
-0,056726 
-0,034858 
0,013647 
0,002960 
-0,023513 
-0,047354 
-0,052451 
-0,062975 
0,289880 
0,821628 
0,052451 
-0,029103 
-0,058206 
-0,047190 
-0,037489 
-0,007728 
0,019895 
0,055082 
0,103258 
0,168864 
0,260613 
0,355814 
0,412870 
0,403662 
0,255022 
0,091256 
0,017922 
-0,008057 
-0,017922 
-0,016936 
-0,025979 
-0,033707 
-0,046861 
-0,052451 
-0,056233 
-0,061824 
-0,062646 
-0,057220 
-0,023842 
0,021046 
-0,016936 
-0,038969 
-0,051958 
-0,056891 
-0,061659 
0,682854 
0,457757 
-0,002631 
-0,035516 
-0,047025 
-0,042093 
-0,024664 
0,004768 
0,035187 
0,078759 
0,127758 
0,199611 
0,297937 
0,383766 
0,433751 
0,386890 
0,211285 
0,063303 
0,013318 
-0,007399 
-0,011345 
-0,012990 
-0,018087 
-0,027130 
-0,038804 
-0,047354 
-0,051794 
-0,048505 
-0,044230 
-0,026472 
0,015456 
0,023348 
-0,011839 
-0,034694 
-0,042915 
-0,045710 
-0,010194 
1,062181 
0,238415 
-0,006906 
-0,027130 
-0,028610 
-0,015456 
0,006577 
0,041271 
0,075635 
0,117892 
0,175770 
0,271465 
0,377189 
0,456278 
0,473707 
0,357459 
0,181689 
0,072840 
0,023513 
0,011674 
0,008057 
0,006248 
0,006741 
-0,007892 
-0,018909 
-0,028281 
-0,032720 
-0,032063 
-0,033049 
-0,016278 
0,026637 
0,032720 
0,009701 
-0,021375 
-0,022691 
-0,022526 
0,106383 
1,177278 
0,155052 
0,024664 
-0,012990 
-0,007892 
0,002302 
0,026637 
0,051958 
0,084350 
0,125456 
0,191554 
0,284783 
0,399222 
0,473542 
0,485052 
0,343811 
0,156368 
0,056233 
0,014798 
0,001315 
0,010523 
0,010688 
0,006906 
-0,003617 
-0,016771 
-0,023184 
-0,032556 
-0,037818 
-0,037160 
-0,023019 
0,024664 
0,024499 
-0,001644 
-0,024993 
-0,034036 
-0,037324 
0,034694 
1,198653 
0,169357 
0,005590 
-0,026472 
-0,027130 
-0,022033 
0,005262 
0,034036 
0,065605 
0,107698 
0,166891 
0,252391 
0,373079 
0,445754 
0,455291 
0,319312 
0,135979 
0,037160 
-0,002631 
-0,007564 
-0,009865 
-0,008386 
-0,012990 
-0,022855 
-0,033378 
-0,042750 
-0,042586 
-0,042257 
-0,042586 
-0,018744 
0,018416 
0,014469 
-0,012825 
-0,036995 
-0,037160 
-0,044559 
0,194843 
0,910911 
0,076457 
-0,012496 
-0,041928 
-0,034694 
-0,021704 
0,004933 
0,036173 
0,069223 
0,109835 
0,176427 
0,268834 
0,369626 
0,435396 
0,428819 
0,267354 
0,099970 
0,021704 
-0,003453 
-0,008221 
-0,008057 
-0,007399 
-0,013154 
-0,027130 
-0,032227 
-0,042257 
-0,041764 
-0,042093 
-0,033871 
-0,001480 
0,034529 
0,001480 
-0,020553 
-0,037324 
-0,037818 
-0,046532 
0,665261 
0,497219 
0,013647 
-0,015620 
-0,036831 
-0,022855 
-0,007399 
0,020060 
0,050478 
0,089282 
0,141569 
0,207339 
0,311420 
0,402346 
0,452003 
0,388699 
0,211943 
0,074649 
0,014963 
-0,003453 
-0,003124 
0,001973 
-0,003453 
-0,014634 
-0,018251 
-0,032885 
-0,037160 
-0,037489 
-0,037653 
-0,020553 
0,030583 
0,028281 
-0,004604 
-0,029925 
-0,032063 
-0,037324 
0,008714 
1,097204 
0,200927 
0,006741 
-0,022855 
-0,019566 
-0,007235 
0,013154 
0,044230 
0,076457 
0,113124 
0,174125 
0,262586 
0,368804 
0,452825 
0,474858 
0,351868 
0,176098 
0,052123 
0,015456 
0,006741 
0,011510 
0,016442 
0,003617 
-0,012661 
-0,027788 
-0,027294 
-0,028117 
-0,033543 
-0,028117 
-0,000658 
0,036995 
0,014140 
-0,004439 
-0,027459 
-0,027788 
-0,030254 
0,268012 
1,018116 
0,100792 
0,009701 
-0,022526 
-0,012825 
0,000493 
0,025157 
0,058699 
0,088954 
0,136801 
0,206188 
0,306487 
0,431778 
0,499357 
0,486367 
0,311913 
0,132690 
0,043572 
0,011181 
0,001644 
0,006906 
0,011016 
0,006084 
-0,003124 
-0,013154 
-0,018580 
-0,022526 
-0,027623 
-0,027459 
0,008879 
0,040777 
0,019895 
-0,004604 
-0,027952 
-0,032392 
-0,038146 
0,310926 
0,944125 
0,080075 
0,005590 
-0,027459 
-0,022197 
-0,002302 
0,019566 
0,048341 
0,082870 
0,129731 
0,201584 
0,304185 
0,409252 
0,471076 
0,440328 
0,259297 
0,092406 
0,017922 
-0,003453 
-0,008386 
-0,008221 
-0,008386 
-0,008714 
-0,023677 
-0,030912 
-0,037160 
-0,041599 
-0,042257 
-0,038969 
0,000329 
0,031405 
0,001480 
-0,022526 
-0,037653 
-0,042421 
-0,045381 
0,693377 
0,491793 
-0,007399 
-0,029596 
-0,039297 
-0,027130 
-0,009372 
0,016771 
0,047190 
0,087803 
0,141898 
0,218191 
0,324409 
0,421420 
0,461868 
0,387384 
0,206353 
0,065605 
0,009537 
-0,002631 
-0,003453 
0,001315 
-0,007399 
-0,012825 
-0,025157 
-0,037653 
-0,037982 
-0,041271 
-0,037653 
-0,021868 
0,021046 
0,018251 
-0,008221 
-0,032227 
-0,033707 
-0,036502 
0,001973 
1,063990 
0,200269 
-0,002795 
-0,025486 
-0,027623 
-0,012990 
0,007728 
0,039133 
0,068729 
0,108684 
0,161136 
0,252556 
0,363049 
0,440822 
0,464499 
0,344798 
0,160149 
0,047683 
0,006084 
-0,007564 
-0,007728 
-0,002631 
-0,008057 
-0,017758 
-0,028939 
-0,037653 
-0,038146 
-0,037489 
-0,033214 
-0,002631 
0,039626 
0,008879 
-0,012496 
-0,027459 
-0,032720 
-0,037818 
0,585022 
0,594558 
0,036667 
-0,005262 
-0,027623 
-0,018580 
0,002302 
0,029103 
0,056398 
0,092242 
0,146338 
0,219506 
0,321778 
0,428161 
0,482092 
0,441644 
0,266367 
0,105725 
0,029103 
0,007070 
0,006906 
0,016278 
0,016114 
0,008714 
-0,008057 
-0,012825 
-0,024170 
-0,022197 
-0,022526 
-0,013812 
0,023348 
0,037489 
0,006084 
-0,016442 
-0,023184 
-0,028939 
-0,016442 
1,065470 
0,342825 
0,019895 
-0,010030 
-0,012496 
-0,010359 
0,029596 
0,040284 
0,070045 
0,108356 
0,167055 
0,249103 
0,369297 
0,468774 
0,506756 
0,413527 
0,212601 
0,077279 
0,015785 
-0,004604 
0,001315 
0,011181 
0,010523 
0,002795 
-0,008879 
-0,017758 
-0,022526 
-0,021704 
-0,026637 
-0,012990 
0,023677 
0,039626 
0,009865 
-0,014798 
-0,022526 
-0,027459 
-0,024006 
1,036202 
0,320463 
0,016114 
-0,015620 
-0,022526 
-0,012825 
0,004768 
0,027294 
0,059193 
0,100628 
0,160807 
0,245486 
0,355485 
0,460553 
0,496233 
0,397742 
0,195172 
0,050972 
0,005097 
-0,003782 
-0,003453 
-0,003124 
0,001644 
-0,005590 
-0,012332 
-0,021868 
-0,026637 
-0,022691 
-0,017429 
-0,008386 
0,025486 
0,046532 
0,008879 
-0,010523 
-0,016607 
-0,017593 
-0,006413 
1,038833 
0,295635 
0,014305 
-0,008386 
-0,017429 
-0,003617 
0,013812 
0,040448 
0,073169 
0,115261 
0,178400 
0,261435 
0,373079 
0,459073 
0,486203 
0,370119 
0,183991 
0,060673 
0,010688 
0,001973 
0,006741 
0,000822 
0,000987 
-0,010688 
-0,022691 
-0,028117 
-0,031076 
-0,032392 
-0,029761 
-0,010852 
0,030912 
0,024828 
0,000658 
-0,022362 
-0,030747 
-0,037160 
0,029761 
1,107891 
0,181360 
0,011016 
-0,019731 
-0,023677 
-0,010523 
0,012332 
0,041435 
0,074978 
0,113946 
0,169028 
0,261764 
0,366502 
0,457757 
0,476666 
0,355321 
0,170508 
0,046861 
0,004439 
-0,002466 
0,001973 
0,002302 
0,000822 
-0,013647 
-0,022855 
-0,026801 
-0,032720 
-0,037489 
-0,032556 
-0,005097 
0,035351 
0,020389 
-0,004439 
-0,023184 
-0,027130 
-0,029268 
0,113124 
1,056591 
0,133841 
0,006413 
-0,023184 
-0,022855 
-0,007235 
0,013647 
0,040448 
0,071360 
0,109835 
0,171659 
0,271958 
0,388370 
0,464992 
0,473049 
0,325396 
0,142885 
0,037982 
-0,002960 
-0,008057 
0,001644 
0,005919 
0,007235 
-0,006906 
-0,019073 
-0,028117 
-0,028445 
-0,033543 
-0,032556 
-0,017429 
0,023842 
0,024006 
0,002795 
-0,022855 
-0,028117 
-0,036831 
0,015785 
1,189281 
0,194350 
0,006248 
-0,017265 
-0,020717 
-0,008057 
0,012661 
0,043572 
0,077115 
0,114439 
0,176921 
0,273109 
0,390343 
0,490478 
0,506263 
0,367653 
0,169850 
0,050314 
-0,000329 
-0,008221 
0,001315 
0,009701 
0,010030 
-0,002302 
-0,012003 
-0,017100 
-0,022197 
-0,027459 
-0,031241 
-0,027623 
0,005097 
0,037982 
0,011345 
-0,008550 
-0,027952 
-0,026966 
-0,027294 
0,407937 
0,932286 
0,065770 
0,003288 
-0,023184 
-0,015291 
0,001973 
0,025979 
0,057384 
0,090433 
0,133348 
0,202571 
0,309282 
0,429641 
0,498206 
0,474693 
0,293333 
0,109671 
0,021046 
-0,008714 
-0,012332 
-0,003124 
-0,003288 
0,001973 
-0,002302 
-0,013318 
-0,018251 
-0,024335 
-0,028445 
-0,027952 
-0,012496 
0,028610 
0,030254 
0,003288 
-0,022033 
-0,027294 
-0,034529 
-0,013483 
1,084707 
0,253049 
0,006248 
-0,020717 
-0,022362 
-0,013318 
0,004439 
0,030747 
0,060015 
0,102272 
0,158012 
0,230852 
0,345949 
0,453482 
0,481106 
0,382780 
0,214903 
0,064619 
0,006413 
-0,008221 
-0,003946 
0,001480 
0,006577 
0,001315 
-0,013154 
-0,025486 
-0,032720 
-0,031076 
-0,027294 
-0,023348 
-0,004111 
0,043572 
0,026472 
0,001480 
-0,024006 
-0,027294 
-0,032885 
0,161136 
1,005455 
0,104738 
0,007399 
-0,019238 
-0,012990 
0,002138 
0,024828 
0,053438 
0,083528 
0,123812 
0,177907 
0,277384 
0,375052 
0,460059 
0,475186 
0,334110 
0,143871 
0,037160 
